##TITLE= SPLICCO spectrum (File: d:\3n1.jdx)
##JCAMP-DX= 4.24
##DATE= 1.3.2022
##TIME= 12:8:9
##DATA TYPE= INFRARED SPECTRUM
##OWNER= Public Domain
##RESOLUTION= 2.0
##DELTAX= 1.00000000
##XUNITS= ARBITRARY UNITS
##YUNITS= ARBITRARY UNITS
##APPLICATION= SPLICCO
$$SHOW_VERTICAL_FLIPPED= 0
$$SHOW_HORIZONTAL_FLIPPED= 0
##XFACTOR= 1.0
##YFACTOR= 0.000001
##FIRSTX= 1.000
##LASTX= 2048.000
##NPOINTS= 2048
##FIRSTY= 0.002083
##XYDATA= (X++(Y..Y))
1.000  2083 2030 2147 2079 2296 2224 2287 2308
9.000  2213 2324 2621 2428 2580 2442 2417 2689
17.000  2526 2521 2457 2597 2619 2612 2556 2674
25.000  2494 2540 2483 2586 2723 2586 2817 2605
33.000  2629 2578 2420 2524 2530 2680 2498 2399
41.000  2495 2449 2573 2656 2618 2518 2682 2716
49.000  2860 2760 2977 2747 2681 2799 2707 2714
57.000  2926 2795 2844 2624 2657 2948 2978 2900
65.000  3017 3035 3492 3135 3043 3103 3181 3326
73.000  3206 2961 3165 3119 3339 3159 3316 3160
81.000  3220 3266 3077 3173 3135 3405 3458 3348
89.000  3329 3271 3344 3150 3408 3355 3305 3424
97.000  3324 3317 3411 3487 3401 3418 3388 3171
105.000  3344 3392 3238 3468 3459 3454 3337 3455
113.000  3405 3605 3697 3408 3803 3369 3511 3623
121.000  3649 3622 3477 3582 3390 3517 3856 3553
129.000  3761 3705 3676 3709 3679 3893 3917 3837
137.000  3602 3700 3770 3672 3632 3658 3669 3710
145.000  3514 3576 3529 3422 3644 3531 3640 3814
153.000  3583 3609 3457 3981 3522 3564 3655 3624
161.000  3727 3790 3789 3667 3736 3576 3709 3622
169.000  3477 3543 3626 3691 3768 3736 3572 3653
177.000  3669 3758 3764 3835 3807 3763 3801 3589
185.000  3562 3760 3744 3810 3838 3878 3987 3832
193.000  3796 3653 3787 3761 3726 3844 3703 3731
201.000  3834 3740 3685 3944 3740 3902 3858 3858
209.000  3680 4070 3618 3931 3683 3936 3722 3830
217.000  3734 3893 3891 3838 3882 3757 3616 4012
225.000  3728 3985 3792 3956 3952 3980 3884 3839
233.000  3783 4088 4053 3957 3926 3916 4088 3825
241.000  3965 3842 3966 4010 3879 3870 3788 3928
249.000  3879 3871 3944 3708 3893 4123 4114 4119
257.000  3958 4287 4220 4097 3987 4141 3893 3903
265.000  4026 4027 3937 4196 4126 4060 4090 4136
273.000  4157 4243 4381 4148 3926 3979 4371 4132
281.000  4275 4102 4008 4061 3900 4276 3992 4081
289.000  4035 3995 4175 4155 4217 4230 4218 4135
297.000  4141 4063 4030 4017 4281 4135 4123 3994
305.000  4197 4161 4117 4208 4264 4338 4219 4138
313.000  4288 4387 4337 4509 4164 4287 4443 4550
321.000  4445 4332 4365 4690 4481 4290 4367 4569
329.000  4303 4589 4352 4302 4593 4499 4654 4367
337.000  4292 4366 4412 4631 4631 4634 4556 4486
345.000  4565 4578 4708 4467 4416 4341 4573 4553
353.000  4658 4512 4512 4714 4401 4623 4519 4617
361.000  4347 4615 4395 4430 4701 4727 4306 4479
369.000  4585 4530 4545 4600 4578 4702 4508 4557
377.000  4598 4605 4581 4766 4574 4561 4516 4458
385.000  4542 4498 4467 4687 4571 4489 4857 4610
393.000  4586 4624 4544 4572 4501 4454 4401 4599
401.000  4727 4668 4425 4632 4546 4724 4530 4730
409.000  4487 4527 4609 4712 4496 4742 4558 4715
417.000  4602 4587 4612 4560 4526 4504 4555 4667
425.000  4786 4637 4544 4601 4564 4862 4565 4617
433.000  4648 4733 4479 4608 4751 4552 4727 4627
441.000  4442 4560 4639 4522 4509 4576 4443 4599
449.000  4639 4600 4570 4433 4590 4589 4587 4634
457.000  4569 4678 4523 4506 4592 4321 4330 4498
465.000  4585 4486 4610 4726 4496 4600 4574 4551
473.000  4513 4518 4565 4564 4537 4661 4559 4610
481.000  4261 4643 4545 4601 4406 4440 4455 4698
489.000  4424 4528 4713 4674 4514 4536 4555 4461
497.000  4353 4481 4520 4548 4823 4479 4537 4416
505.000  4659 4563 4472 4568 4591 4553 4470 4551
513.000  4411 4530 4582 4221 4533 4426 4541 4369
521.000  4412 4546 4506 4544 4380 4692 4319 4465
529.000  4146 4552 4311 4469 4427 4446 4406 4222
537.000  4262 4387 4649 4283 4540 4378 4481 4304
545.000  4466 4592 4473 4261 4509 4535 4628 4517
553.000  4316 4282 4637 4633 4511 4414 4472 4621
561.000  4297 4462 4489 4465 4514 4408 4462 4259
569.000  4315 4478 4457 4507 4581 4498 4457 4621
577.000  4344 4546 4494 4401 4361 4397 4777 4506
585.000  4516 4428 4450 4241 4266 4508 4315 4645
593.000  4466 4545 4559 4291 4206 4552 4382 4205
601.000  4389 4374 4372 4465 4524 4514 4496 4335
609.000  4632 4434 4366 4453 4525 4455 4272 4437
617.000  4584 4384 4477 4512 4313 4356 4640 4690
625.000  4457 4499 4477 4470 4500 4525 4333 4509
633.000  4563 4364 4555 4421 4669 4388 4338 4490
641.000  4405 4438 4477 4435 4466 4374 4645 4514
649.000  4481 4318 4418 4443 4399 4411 4570 4456
657.000  4276 4521 4471 4379 4415 4481 4361 4271
665.000  4425 4582 4245 4536 4651 4296 4432 4564
673.000  4526 4536 4499 4737 4304 4628 4575 4418
681.000  4498 4448 4495 4486 4609 4372 4239 4315
689.000  4422 4564 4376 4690 4402 4455 4500 4533
697.000  4540 4589 4556 4447 4428 4524 4613 4352
705.000  4357 4538 4573 4429 4409 4517 4500 4496
713.000  4538 4734 4559 4504 4570 4739 4464 4512
721.000  4447 4428 4656 4642 4594 4441 4695 4559
729.000  4442 4546 4444 4434 4498 4339 4411 4553
737.000  4537 4530 4487 4616 4549 4551 4697 4672
745.000  4601 4522 4368 4606 4547 4491 4647 4649
753.000  4480 4668 4624 4865 4733 4570 4442 4707
761.000  4545 4479 4426 4674 4490 4558 4459 4473
769.000  4682 4445 4909 4559 4609 4582 4594 4547
777.000  4591 4543 4877 4782 4788 4717 4803 4523
785.000  4659 4462 4805 4689 4472 4725 4754 4629
793.000  4595 4634 4672 4650 4517 4560 4649 4692
801.000  4749 4682 4688 4571 4781 4737 4668 4625
809.000  4675 4750 4743 4853 4658 4560 4821 4844
817.000  4722 4744 4517 4645 4793 4776 4815 4835
825.000  4908 4878 4890 4976 4813 4903 4683 4914
833.000  4739 4618 4966 4848 4885 4737 4831 4925
841.000  4830 5018 5105 4904 4986 4833 4997 4909
849.000  5005 4895 4999 5122 5213 5059 5073 5029
857.000  5085 4997 5047 5121 5302 5222 5335 4952
865.000  5083 5194 5149 5202 5091 4991 5208 5206
873.000  5189 5228 5546 5174 5181 5396 5151 5216
881.000  5347 5309 5401 5453 5482 5263 5378 5334
889.000  5335 5489 5557 5388 5626 5536 5365 5497
897.000  5463 5680 5552 5712 5563 5475 5625 5639
905.000  5850 5679 5693 5923 5706 5647 5489 5786
913.000  5700 5881 5811 5702 5579 5546 5796 5877
921.000  5667 5665 5830 5726 5769 5764 5915 6068
929.000  5930 5861 6115 6196 6112 6018 6113 6240
937.000  6093 6200 6230 6313 6091 6162 6278 6284
945.000  6196 6261 6504 6287 6504 6620 6544 6407
953.000  6409 6755 6679 7039 7056 7105 6956 6864
961.000  7013 6916 7139 7335 7197 7343 7132 7182
969.000  7248 7220 7186 7137 7374 7321 7574 7686
977.000  7587 7571 7552 7123 7321 7408 7362 7392
985.000  7599 7531 7486 7275 7380 7610 7466 7777
993.000  7704 7693 8007 7916 7965 7879 7896 7826
1001.000  7737 8029 7921 8099 7960 8089 8027 8292
1009.000  8199 8069 8294 8197 8306 8502 8344 7899
1017.000  8120 8181 8123 8329 8216 8192 8214 8425
1025.000  8385 8324 8496 8670 8572 8777 8565 8813
1033.000  8815 8797 9284 9143 8627 8638 8829 9061
1041.000  8615 8378 8501 8540 8518 8657 8728 8815
1049.000  8443 9416 9097 9530 9393 9130 9189 9290
1057.000  9515 9833 9707 10256 11118 11157 10644 10885
1065.000  11075 12340 11397 17065 14212 12539 12383 9920
1073.000  9935 9734 9300 9143 9153 9093 8938 9018
1081.000  9107 9384 9711 9526 9642 9705 9850 10091
1089.000  10605 12091 13378 12473 11161 11023 11142 11644
1097.000  11888 11058 10984 10862 11040 11046 10461 10405
1105.000  10306 10264 10299 10664 10439 9892 10225 9825
1113.000  9807 10051 10367 10551 10879 11370 11456 12292
1121.000  13025 13404 13523 13782 14269 14532 14604 14686
1129.000  14668 14894 14538 14505 14511 14307 13861 13494
1137.000  13104 12544 12155 11843 11476 11823 12316 13392
1145.000  14401 16681 19707 23376 26581 31111 37124 43497
1153.000  51284 59918 69796 82442 94534 109340 124273 142069
1161.000  161258 181858 201932 224376 243973 269447 291577 315041
1169.000  338734 360314 382754 405316 427445 449865 471683 492543
1177.000  514724 532298 547712 565394 580052 595930 606236 617233
1185.000  629033 637890 646839 654467 660172 666589 671699 676483
1193.000  680207 683967 684906 689274 690833 690081 693031 695378
1201.000  694386 696159 697403 697999 702098 700033 702719 702258
1209.000  704611 705075 704676 703233 706166 704084 705057 703224
1217.000  703794 703234 703354 700721 699955 699409 696179 695742
1225.000  691345 687275 683902 681618 679308 676721 673451 666192
1233.000  662367 658773 653642 650490 645564 641540 636803 632914
1241.000  628971 626042 623571 619892 617244 613750 611675 609627
1249.000  606927 607506 607091 606287 605541 605865 605529 607535
1257.000  608309 610531 609726 611069 611804 614645 615975 619064
1265.000  621996 623595 623333 626491 633340 632978 628684 629616
1273.000  630679 632887 634240 637413 637420 636308 640012 640312
1281.000  640472 641701 640078 641398 641822 643930 646476 647932
1289.000  648938 650426 654555 657765 658918 663081 665637 669569
1297.000  674147 677489 680962 684658 689533 691306 693678 697662
1305.000  702746 702373 702604 704487 702187 700050 698597 695441
1313.000  693132 684448 676915 667654 658310 647356 635636 621961
1321.000  606495 587823 569965 550737 528715 505687 482067 458804
1329.000  432947 407420 380381 355157 328245 302662 276171 252021
1337.000  228083 205730 181742 160042 140127 121551 104906 90243
1345.000  76669 66123 55573 46893 39599 33380 28636 24465
1353.000  21112 18253 16616 15258 14418 14003 14018 14147
1361.000  14737 14798 15221 15601 16032 16578 16707 17061
1369.000  16625 16888 16404 16234 15634 15365 14839 14187
1377.000  13576 12954 12472 11967 11504 11088 10775 10362
1385.000  9977 9852 9567 9529 9674 9702 10060 10099
1393.000  10265 10460 10635 10577 10889 10798 11189 11007
1401.000  11056 10878 10864 10665 10440 10432 10229 10143
1409.000  9896 9590 9382 9193 9143 8824 8864 8898
1417.000  8878 8810 8900 8870 8894 8909 8825 9313
1425.000  9350 9335 9511 9725 9649 10033 9720 10083
1433.000  10179 10134 9810 10059 9922 9741 9537 9549
1441.000  9355 9038 9097 8793 8595 8703 8364 8279
1449.000  8271 8205 7933 8139 7959 8020 8059 8189
1457.000  8238 8478 8330 8338 8146 8360 8615 8720
1465.000  8533 8708 8525 8559 8524 8580 8348 8279
1473.000  8287 8204 8189 8179 8180 7879 7787 7882
1481.000  7567 7506 7504 7589 7305 7266 7469 7346
1489.000  7307 7522 7573 7542 7504 7470 7292 7471
1497.000  7426 7526 7530 7429 7609 7338 7581 7410
1505.000  7404 7436 7418 7379 7529 7272 7181 7173
1513.000  7009 6913 6853 6948 6748 6847 6688 6496
1521.000  6748 6750 6585 6754 6633 6604 6525 6632
1529.000  6701 6647 6539 6478 6750 6407 6565 6355
1537.000  6400 6473 6337 6290 6486 6230 6321 6270
1545.000  6156 6264 6299 6135 6186 6121 6282 6506
1553.000  6387 6112 6397 6355 6007 6403 6158 6214
1561.000  6131 6309 6121 6193 6123 6241 6002 6276
1569.000  6199 5987 6143 6000 5869 5836 5793 5974
1577.000  5981 5899 5555 5567 5893 5761 5698 5411
1585.000  5820 5686 5452 5475 5470 5441 5523 5462
1593.000  5469 5366 5255 5481 5220 5367 5264 5299
1601.000  5274 5390 5078 5139 5280 5125 4955 5272
1609.000  5185 5013 5181 5136 5094 5071 5258 5160
1617.000  5094 5267 5264 4977 5128 5106 5158 5290
1625.000  5195 5134 5123 5130 5048 5252 5104 5233
1633.000  5247 5076 5018 5104 5019 5027 5061 4898
1641.000  4855 4999 4988 4813 4928 4670 4901 4793
1649.000  4832 4919 4808 4718 4841 4960 4712 4944
1657.000  4742 4931 5016 4757 4691 4777 4683 4780
1665.000  4475 4737 4512 4595 4684 4683 4634 4476
1673.000  4621 4494 4572 4506 4661 4677 4423 4614
1681.000  4703 4493 4581 4565 4582 4566 4459 4537
1689.000  4511 4858 4544 4790 4639 4684 4736 4719
1697.000  4523 4662 4671 4524 4305 4532 4470 4458
1705.000  4614 4457 4342 4613 4560 4424 4422 4646
1713.000  4549 4353 4347 4472 4413 4455 4472 4504
1721.000  4532 4394 4379 4527 4353 4294 4637 4474
1729.000  4296 4394 4279 4427 4473 4459 4302 4183
1737.000  4200 4294 4151 4257 4135 4261 4066 4246
1745.000  4282 4358 4204 4381 4143 4245 4053 4171
1753.000  4399 4302 4089 4247 4311 4184 4041 4170
1761.000  3902 4258 4230 4090 4195 4090 4026 4009
1769.000  4100 4108 4020 3857 4131 4070 4117 3945
1777.000  3954 3998 4230 3889 3929 3939 4075 4077
1785.000  4085 4004 4023 4049 4175 4011 4117 4099
1793.000  4159 4003 4207 4236 4033 4198 4277 4328
1801.000  4321 4141 3995 4127 4002 3976 3934 4194
1809.000  4038 3980 4026 3922 3977 3918 4001 3918
1817.000  3894 3927 4102 3988 3786 3992 4169 3974
1825.000  4026 3933 3695 3857 3648 3681 3874 3676
1833.000  3644 3716 3484 3656 3581 3549 3739 3469
1841.000  3830 3686 3570 3569 3537 3482 3611 3822
1849.000  3521 3481 3693 3490 3538 3513 3525 3678
1857.000  3472 3593 3424 3610 3545 3520 3585 3597
1865.000  3520 3481 3478 3469 3501 3525 3641 3226
1873.000  3303 3423 3538 3392 3626 3396 3471 3471
1881.000  3360 3522 3402 3608 3355 3396 3540 3487
1889.000  3537 3424 3450 3279 3242 3246 3297 3318
1897.000  3239 3237 3490 3288 3204 3209 3211 3106
1905.000  3094 3029 3023 3022 3193 2959 3029 2920
1913.000  2923 2767 2812 2987 2969 2841 2898 2858
1921.000  2716 2682 2792 2621 2629 2504 2548 2518
1929.000  2367 2622 2500 2495 2533 2557 2429 2314
1937.000  2610 2389 2370 2234 2459 2447 2399 2451
1945.000  2394 2443 2412 2322 2369 2217 2366 2373
1953.000  2300 2478 2490 2314 2242 2255 2339 2282
1961.000  2316 2090 2211 2270 2209 2244 2328 2106
1969.000  2153 2262 2124 2158 2280 2103 1981 2142
1977.000  2194 1979 2029 2096 2182 2101 1981 1991
1985.000  1950 2068 2105 2090 1999 1976 1907 1942
1993.000  1898 2004 1927 1872 2030 1949 1866 1902
2001.000  1899 1954 1834 2073 2006 1776 1819 1830
2009.000  1915 1929 1736 1831 1881 1761 1728 1829
2017.000  1869 1873 1876 1861 1902 1786 1758 1750
2025.000  1870 1791 1724 1790 1758 1656 1818 1848
2033.000  1983 1822 1780 1952 1917 1825 1874 2034
2041.000  1859 2164 2083 1891 1934 2138 2212 2139
##END=
