##TITLE= SPLICCO spectrum (File: d:\Messung3(b).jdx)
##JCAMP-DX= 4.24
##DATE= 1.3.2022
##TIME= 11:58:14
##DATA TYPE= INFRARED SPECTRUM
##OWNER= Public Domain
##RESOLUTION= 2.0
##DELTAX= 1.00000000
##XUNITS= ARBITRARY UNITS
##YUNITS= ARBITRARY UNITS
##APPLICATION= SPLICCO
$$SHOW_VERTICAL_FLIPPED= 0
$$SHOW_HORIZONTAL_FLIPPED= 0
##XFACTOR= 1.0
##YFACTOR= 0.000001
##FIRSTX= 1.000
##LASTX= 2048.000
##NPOINTS= 2048
##FIRSTY= 0.001415
##XYDATA= (X++(Y..Y))
1.000  1415 1431 1545 1370 1634 1435 1692 1516
9.000  1621 1723 1828 1634 1870 1660 1753 1666
17.000  1944 1851 1782 1690 1889 1598 1983 1872
25.000  1846 1665 1911 1797 1926 1927 2036 2008
33.000  1772 1779 1883 1739 1684 1740 1821 1670
41.000  1713 1689 1887 1860 1582 1745 1942 1734
49.000  1763 1841 2036 1980 1829 1880 1707 1760
57.000  1957 1892 1970 2038 1890 2087 2021 1948
65.000  2054 2058 2480 2207 2128 2207 2169 2347
73.000  2101 2022 2156 2146 2275 2507 2384 2346
81.000  2655 2589 2443 2638 2694 2654 2832 2797
89.000  2694 2859 2814 2740 2763 2844 2997 3094
97.000  2920 3001 3003 2974 2984 3079 3127 3073
105.000  3059 3265 3267 3189 3181 3135 3247 3443
113.000  3361 3315 3546 3291 3762 3350 3370 3646
121.000  3589 3742 3513 3760 3594 3521 3930 3524
129.000  3645 3652 3738 3849 3785 3703 3930 3850
137.000  3760 3890 3768 3862 3769 3878 3760 3698
145.000  3686 3755 3594 3742 3695 3729 3444 3915
153.000  3728 3820 3764 3768 3730 3799 3858 3759
161.000  3905 4024 3954 3928 3963 3805 3823 3863
169.000  3683 4011 3919 3836 3880 3983 3973 3890
177.000  3864 3981 4149 4319 4196 4082 4182 4007
185.000  3927 4167 4179 4147 4334 4136 4216 4271
193.000  4268 4145 4329 4305 4124 4327 4226 4324
201.000  4280 4357 4168 4368 4373 4215 4344 4371
209.000  4201 4445 4175 4428 4327 4401 4136 4222
217.000  4264 4239 4372 4411 4301 4402 4272 4538
225.000  4438 4613 4519 4595 4302 4615 4499 4523
233.000  4394 4524 4577 4570 4561 4295 4575 4448
241.000  4620 4523 4668 4472 4526 4431 4295 4531
249.000  4349 4561 4383 4228 4286 4344 4245 4379
257.000  4153 4460 4590 4593 4431 4422 4448 4381
265.000  4561 4367 4404 4336 4518 4550 4390 4415
273.000  4379 4636 4541 4462 4307 4340 4684 4628
281.000  4603 4397 4233 4258 4471 4580 4514 4459
289.000  4478 4530 4284 4434 4457 4333 4376 4291
297.000  4390 4215 4487 4355 4465 4342 4387 4493
305.000  4359 4396 4429 4474 4463 4347 4451 4339
313.000  4406 4252 4492 4495 4312 4338 4353 4566
321.000  4514 4388 4383 4756 4444 4357 4471 4531
329.000  4418 4648 4207 4262 4748 4529 4482 4456
337.000  4415 4441 4433 4575 4465 4610 4381 4293
345.000  4332 4408 4367 4496 4319 4390 4558 4575
353.000  4474 4335 4440 4617 4468 4515 4500 4507
361.000  4548 4429 4453 4448 4446 4597 4551 4522
369.000  4332 4579 4514 4483 4450 4556 4477 4779
377.000  4477 4532 4549 4414 4471 4513 4546 4530
385.000  4628 4505 4475 4468 4460 4487 4606 4556
393.000  4587 4452 4405 4372 4613 4694 4495 4688
401.000  4612 4501 4564 4631 4542 4652 4598 4628
409.000  4483 4325 4508 4597 4593 4629 4563 4416
417.000  4396 4524 4383 4469 4516 4500 4616 4487
425.000  4655 4532 4628 4577 4582 4621 4527 4670
433.000  4485 4428 4472 4598 4661 4466 4511 4578
441.000  4454 4408 4499 4472 4574 4577 4566 4598
449.000  4569 4443 4698 4549 4507 4589 4631 4395
457.000  4590 4786 4519 4461 4678 4438 4613 4531
465.000  4398 4494 4520 4667 4627 4445 4484 4495
473.000  4574 4655 4424 4550 4778 4635 4550 4619
481.000  4273 4681 4384 4546 4313 4450 4499 4458
489.000  4504 4575 4643 4775 4555 4627 4511 4567
497.000  4318 4476 4648 4516 4508 4581 4506 4403
505.000  4564 4464 4439 4547 4527 4425 4699 4562
513.000  4480 4600 4600 4402 4597 4344 4418 4452
521.000  4521 4475 4592 4591 4470 4516 4538 4507
529.000  4449 4578 4540 4566 4477 4521 4627 4482
537.000  4533 4254 4810 4247 4648 4481 4557 4433
545.000  4287 4606 4416 4434 4400 4447 4250 4395
553.000  4452 4349 4555 4722 4571 4441 4447 4546
561.000  4427 4430 4440 4589 4449 4494 4445 4399
569.000  4549 4650 4778 4490 4840 4379 4448 4726
577.000  4578 4643 4617 4398 4347 4652 4827 4698
585.000  4648 4601 4530 4472 4516 4597 4508 4715
593.000  4504 4612 4372 4673 4632 4513 4422 4511
601.000  4628 4516 4501 4503 4625 4439 4558 4390
609.000  4525 4412 4293 4577 4644 4378 4453 4709
617.000  4482 4364 4427 4594 4563 4589 4419 4539
625.000  4596 4604 4525 4340 4534 4592 4592 4373
633.000  4455 4401 4542 4494 4646 4693 4560 4359
641.000  4665 4506 4570 4733 4625 4536 4722 4524
649.000  4595 4564 4762 4874 4562 4838 4514 4725
657.000  4673 4524 4420 4528 4548 4451 4410 4400
665.000  4421 4424 4435 4563 4734 4486 4600 4480
673.000  4574 4615 4619 4661 4581 4722 4498 4487
681.000  4467 4528 4639 4524 4660 4603 4399 4435
689.000  4603 4480 4361 4755 4535 4555 4853 4561
697.000  4494 4587 4617 4627 4653 4627 4763 4676
705.000  4772 4662 4625 4744 4557 4836 4707 4836
713.000  4859 4710 4708 4747 4817 4864 4713 4631
721.000  4663 4836 4741 4658 4789 4782 4700 4905
729.000  4697 4637 4890 4707 4688 4499 4646 4607
737.000  4449 4712 4720 4733 4689 4577 4443 4474
745.000  4502 4621 4664 4838 4704 4383 4769 4627
753.000  4767 4616 4871 5006 4963 4455 4761 4957
761.000  4781 4718 4717 4830 4863 4734 4735 4919
769.000  5081 4752 5026 4983 4870 4975 4784 4842
777.000  4808 4940 5013 4992 5171 4864 5015 4883
785.000  4913 5129 4779 4763 4867 5134 4854 4733
793.000  4992 4918 4982 4742 4838 4833 4849 4913
801.000  5097 4894 4928 4651 4830 4759 4901 4918
809.000  4905 4744 4967 5070 5031 4812 4957 4776
817.000  4962 4947 4675 4884 4964 4853 4983 5089
825.000  5290 5075 5065 5093 5270 5199 5220 5135
833.000  5424 5183 5171 5382 5321 5173 5249 5394
841.000  5377 5705 5644 5465 5549 5324 5505 5364
849.000  5495 5464 5492 5415 5307 5495 5235 5402
857.000  5459 5355 5371 5487 5441 5541 5388 5293
865.000  5376 5299 5359 5101 5177 5088 5094 5109
873.000  5231 5306 5477 5072 5433 5384 5292 5349
881.000  5594 5337 5141 5477 5428 5609 5482 5373
889.000  5531 5654 5801 5714 5738 5664 5757 5800
897.000  5688 5809 6097 5918 6146 5979 5996 5956
905.000  6144 6164 6262 6413 6393 6202 6176 6294
913.000  6412 6295 6397 6273 6094 6258 6221 6192
921.000  6145 6024 6358 6099 6098 6138 6046 6222
929.000  6046 5905 6094 6157 6063 6040 6132 6012
937.000  5966 5880 6135 6135 6177 6284 6184 6087
945.000  6123 6271 6312 6234 6431 6637 6427 6512
953.000  6536 6743 6909 6769 7049 7220 6978 7211
961.000  6989 7137 7412 7559 7536 7568 7659 7658
969.000  7718 7802 7943 7465 7803 7966 8115 8043
977.000  8207 8161 8202 7960 7900 8187 7927 7851
985.000  8187 8060 8124 7904 7969 7647 7902 7961
993.000  7919 7782 8018 7814 7778 7753 7650 7489
1001.000  7536 7642 7631 8029 7805 7874 7735 8002
1009.000  7953 8013 8167 8623 8824 8809 8773 8560
1017.000  8783 8769 8967 9139 9295 9557 9497 9647
1025.000  9779 10129 10110 10435 10589 10717 10708 11021
1033.000  11009 10818 11472 11413 10899 10901 10985 11666
1041.000  11277 10801 10998 11072 10611 10750 10904 10706
1049.000  10487 11052 11090 10950 10482 10059 9830 9977
1057.000  10098 9837 9884 10194 10857 10483 9863 10107
1065.000  10325 11033 10637 17316 14236 13199 11735 9266
1073.000  9668 9719 9754 9479 9702 9736 10043 10131
1081.000  10573 11190 11457 11677 11776 12017 12276 12866
1089.000  13534 15473 16323 15942 15066 14726 15416 15837
1097.000  16247 15710 16014 16004 16394 16849 16257 16466
1105.000  16392 16463 16678 16959 16990 16298 15666 15479
1113.000  15166 14908 14435 14317 13760 13542 13334 13092
1121.000  12951 12059 11752 11412 11184 10714 10227 10075
1129.000  9717 9675 9815 9909 10530 10829 11203 12173
1137.000  13066 14005 14957 16056 17468 19156 21152 23172
1145.000  25637 29018 31858 35358 38473 41953 46162 49939
1153.000  54963 59659 64381 69911 75349 82592 87236 95872
1161.000  102542 111411 119398 129358 136729 148805 156936 167201
1169.000  177570 186205 195542 206412 218296 229026 241265 251837
1177.000  264952 275729 287650 299367 311543 322004 335201 345167
1185.000  357032 369953 381229 393981 404140 416409 427843 438343
1193.000  451296 462927 472173 483078 494188 503106 514542 525970
1201.000  534241 542871 553437 563312 574178 580712 591358 597110
1209.000  604882 613058 620646 624456 633578 637006 645079 648896
1217.000  655074 661122 665531 670172 674687 679384 683838 687219
1225.000  689253 693108 696157 699526 703866 707133 710138 709875
1233.000  711623 714847 715597 717369 719349 720864 721967 721980
1241.000  724334 725160 724973 726813 726358 727529 727305 727668
1249.000  726339 727340 727795 727587 726219 726951 727327 725627
1257.000  725528 727406 725204 723159 723261 724155 721728 721304
1265.000  724294 722497 718618 720547 723512 720559 713513 712652
1273.000  712351 709411 708105 707219 704575 704249 704006 701308
1281.000  696659 694762 691709 691290 686204 682851 681476 679215
1289.000  675592 672834 668870 664900 661843 657706 654027 646744
1297.000  643615 639326 635376 628367 622705 618595 612872 607592
1305.000  601336 594944 588143 583035 574153 564070 557709 551453
1313.000  543233 533414 525925 517372 508673 499676 490823 482089
1321.000  472440 460878 450557 441279 431237 419918 409519 399936
1329.000  388142 377837 367720 356361 346173 334890 322532 313219
1337.000  301820 290941 279527 268387 257200 245482 235656 224447
1345.000  214044 204070 193705 183840 174877 165295 155654 146207
1353.000  138209 129405 120602 113136 105343 98052 91329 84503
1361.000  79186 72589 67266 62344 57463 53505 49095 44987
1369.000  41384 38127 34390 31504 28785 26120 23930 22080
1377.000  20049 18248 16910 15455 14497 13364 12518 11729
1385.000  11065 10421 10036 9551 9446 9357 9672 9530
1393.000  9634 9798 9899 10202 10493 10515 11256 11272
1401.000  11373 11777 12316 12631 12799 13103 13196 13608
1409.000  13728 13910 13913 13953 13905 14133 14021 14458
1417.000  14079 14310 13949 13500 13516 13562 13126 13095
1425.000  12921 12479 12418 11732 11400 11247 11164 10907
1433.000  11007 10440 10227 9794 9512 9554 9457 9102
1441.000  8732 8541 8457 8358 8400 8063 7928 8010
1449.000  7964 8060 8036 7974 7971 8144 8145 8036
1457.000  8171 8476 8373 8701 8271 8783 8622 9060
1465.000  8868 9151 9295 9384 9313 9392 9755 9562
1473.000  9842 9708 9898 9961 10087 9785 9479 10008
1481.000  9775 9500 9570 9479 9290 9141 8974 9202
1489.000  8793 8833 8747 8909 8441 8501 8256 8247
1497.000  7773 7920 7719 7494 7314 7131 7265 7022
1505.000  6806 6793 6988 6699 6896 6620 6314 6465
1513.000  6413 6077 6289 6246 6493 6291 6105 6272
1521.000  6428 6344 6362 6871 6583 6649 6771 6853
1529.000  6795 6774 7094 6905 7000 7073 7142 7044
1537.000  6953 7098 7230 7200 7276 7201 7102 7069
1545.000  7253 7066 7185 6847 6851 7002 7115 6760
1553.000  6627 6589 6459 6419 6280 6232 6377 5995
1561.000  5737 6007 5477 5457 5527 5641 5448 5265
1569.000  5424 5107 5132 4964 4987 4868 4732 5014
1577.000  4859 4849 4714 4619 5019 4744 4713 4631
1585.000  4631 4671 4453 4745 4779 4918 5002 4816
1593.000  4965 4923 4939 5001 4964 5139 4970 5114
1601.000  5170 5131 4891 5074 5225 5133 5051 5153
1609.000  5170 5059 5009 5155 4967 4904 4936 4895
1617.000  4823 4797 4887 4614 4481 4705 4439 4425
1625.000  4562 4347 4288 4242 4114 4260 4095 4150
1633.000  4156 4104 3920 3990 3835 4164 4069 3597
1641.000  3827 3909 3706 3562 3673 3768 3682 3713
1649.000  3481 3764 3745 3673 3812 3889 3684 3683
1657.000  3910 3853 3863 3946 3913 3718 3864 3700
1665.000  3853 4003 3867 4003 3985 3920 4067 4051
1673.000  4031 3821 4044 3977 4248 4018 4027 4137
1681.000  4084 4055 4119 3710 3876 3983 3719 3985
1689.000  3765 3857 3728 3694 3544 3457 3546 3593
1697.000  3489 3478 3485 3291 3228 3257 3409 3142
1705.000  3270 3352 3114 3162 3209 3247 3306 3294
1713.000  3130 3043 3167 3414 3195 3383 3257 3349
1721.000  3376 3372 3392 3339 3496 3434 3473 3639
1729.000  3454 3407 3532 3633 3600 3496 3512 3518
1737.000  3604 3316 3308 3623 3502 3623 3449 3437
1745.000  3539 3412 3397 3499 3491 3491 3186 3343
1753.000  3326 3222 3197 3330 3274 3272 3099 3207
1761.000  3064 3185 3177 2999 3043 3033 2963 2986
1769.000  3005 2768 2907 2894 3010 3060 2882 2911
1777.000  2840 2965 2999 2872 2828 2932 2711 2937
1785.000  3038 3025 3053 2895 3232 2841 3131 3056
1793.000  3190 3012 3182 3315 3197 3109 3047 3090
1801.000  3181 2994 2838 3163 3033 3163 2790 3053
1809.000  3112 2983 3025 2884 2987 2912 2804 2668
1817.000  2856 2917 2754 2775 2805 2901 2834 2782
1825.000  2861 2909 2621 2652 2704 2497 2737 2536
1833.000  2643 2336 2444 2442 2404 2464 2727 2448
1841.000  2699 2474 2464 2486 2574 2507 2390 2772
1849.000  2448 2371 2564 2576 2429 2482 2414 2650
1857.000  2599 2432 2438 2488 2500 2473 2585 2830
1865.000  2754 2511 2518 2635 2768 2637 2671 2522
1873.000  2583 2550 2431 2569 2715 2586 2568 2520
1881.000  2440 2350 2329 2527 2432 2387 2340 2429
1889.000  2421 2434 2583 2140 2180 2192 2378 2157
1897.000  2149 2246 2345 2241 2078 2142 2066 2182
1905.000  2140 2135 2033 2127 2324 2211 1959 2189
1913.000  2038 2089 2101 2201 2276 2125 1943 2068
1921.000  2050 2059 2081 2146 2025 1916 2209 1952
1929.000  1960 2072 1909 1929 2135 1867 2034 1831
1937.000  2077 1851 1958 1876 1962 1921 1910 1940
1945.000  1952 1949 1994 1751 2014 1669 1866 1830
1953.000  1915 1942 1929 1949 1910 1956 2048 1964
1961.000  1735 1712 1807 1927 1796 1920 1863 1653
1969.000  1719 1727 1713 1656 1771 1659 1662 1685
1977.000  1567 1728 1718 1733 1683 1723 1687 1694
1985.000  1553 1802 1618 1699 1561 1759 1570 1660
1993.000  1489 1604 1571 1648 1650 1555 1507 1532
2001.000  1571 1508 1451 1745 1526 1488 1522 1566
2009.000  1533 1589 1284 1347 1476 1308 1367 1512
2017.000  1358 1466 1425 1438 1554 1346 1360 1337
2025.000  1413 1342 1282 1377 1471 1381 1477 1354
2033.000  1243 1352 1205 1291 1307 1325 1376 1073
2041.000  1297 1518 1440 1363 1279 1432 1473 1478
##END=
