Data from 622nm_USB4H101871__0__11-48-21-014.txt Node

Date: Fri Mar 05 11:48:21 CET 2021
User: Praktikum
Spectrometer: USB4H10187
Trigger mode: 4
Integration Time (sec): 2,900000E-2
Scans to average: 15
Electric dark correction enabled: true
Nonlinearity correction enabled: false
Boxcar width: 0
XAxis mode: Wavelengths
Number of Pixels in Spectrum: 3648
>>>>>Begin Spectral Data<<<<<
176,795	-27,57
177,017	-27,57
177,239	-27,57
177,461	-34,53
177,683	-44,77
177,905	-6,27
178,127	13,25
178,349	-5,04
178,571	-9,41
178,793	18,03
179,015	4,79
179,237	2,74
179,459	0,69
179,681	-15,01
179,903	-9,82
180,124	-8,18
180,346	14,21
180,568	3,56
180,79	54,76
181,012	52,03
181,234	106,51
181,455	76,88
181,677	59,13
181,899	70,87
182,121	74,15
182,342	78,11
182,564	84,52
182,786	61,18
183,007	86,71
183,229	87,12
183,451	60,9
183,673	64,32
183,894	95,72
184,116	72,78
184,337	84,93
184,559	83,84
184,781	82,07
185,002	97,22
185,224	85,75
185,445	79,47
185,667	57,08
185,889	58,04
186,11	64,73
186,332	71,55
186,553	92,17
186,775	69,23
186,996	80,02
187,218	81,66
187,439	87,25
187,661	91,9
187,882	93,67
188,103	92,31
188,325	91,35
188,546	79,06
188,768	81,11
188,989	86,16
189,211	92,31
189,432	91,62
189,653	92,72
189,875	83,57
190,096	89,99
190,317	76,88
190,539	94,63
190,76	103,91
190,981	85,75
191,202	66,78
191,424	90,53
191,645	49,16
191,866	86,3
192,087	74,69
192,309	65,68
192,53	76,47
192,751	66,09
192,972	67,18
193,193	84,8
193,415	78,24
193,636	103,5
193,857	79,88
194,078	79,88
194,299	79,47
194,52	96,4
194,741	75,65
194,962	85,21
195,183	76,47
195,404	105,28
195,625	88,21
195,846	73,06
196,067	72,92
196,288	89,58
196,509	100,91
196,73	122,48
196,951	63,09
197,172	92,99
197,393	84,93
197,614	91,62
197,835	105,14
198,056	76,33
198,277	84,93
198,498	66,23
198,719	87,39
198,94	89,17
199,161	82,75
199,381	88,21
199,602	70,87
199,823	80,56
200,044	90,67
200,265	90,4
200,485	77,97
200,706	79,88
200,927	91,08
201,148	90,12
201,368	82,89
201,589	84,11
201,81	101,32
202,031	143,23
202,251	103,78
202,472	93,13
202,693	107,05
202,913	106,1
203,134	77,7
203,355	85,34
203,575	93,26
203,796	130,94
204,016	92,03
204,237	85,34
204,457	82,07
204,678	86,98
204,899	90,53
205,119	84,25
205,34	103,23
205,56	76,88
205,781	89,71
206,001	99,82
206,222	83,71
206,442	92,17
206,663	66,09
206,883	112,92
207,103	93,94
207,324	114,15
207,544	96,13
207,765	96,27
207,985	76,61
208,205	113,88
208,426	99,82
208,646	87,53
208,866	75,1
209,087	93,4
209,307	80,43
209,527	81,79
209,748	103,64
209,968	84,39
210,188	111,83
210,408	118,25
210,629	90,67
210,849	115,24
211,069	75,65
211,289	85,34
211,51	93,26
211,73	107,6
211,95	137,36
212,17	86,57
212,39	95,31
212,61	111,56
212,83	79,47
213,051	89,58
213,271	99,27
213,491	86,57
213,711	89,85
213,931	106,78
214,151	101,73
214,371	102,68
214,591	113,33
214,811	79,61
215,031	94,35
215,251	98,04
215,471	105,41
215,691	121,39
215,911	102,14
216,131	106,51
216,351	86,98
216,571	98,59
216,791	100,91
217,011	116,88
217,23	98,59
217,45	100,91
217,67	109,92
217,89	130,54
218,11	122,89
218,33	105,69
218,549	118,38
218,769	112,92
218,989	93,54
219,209	123,71
219,429	101,86
219,648	109,92
219,868	97,49
220,088	119,2
220,308	106,51
220,527	106,51
220,747	76,74
220,967	95,45
221,186	97,9
221,406	107,46
221,626	76,33
221,845	79,2
222,065	99,41
222,285	94,35
222,504	113,74
222,724	120,98
222,943	97,9
223,163	124,8
223,382	95,86
223,602	104,05
223,821	96,13
224,041	107,19
224,26	114,29
224,48	105,69
224,699	119,34
224,919	92,31
225,138	111,97
225,358	121,39
225,577	83,3
225,797	99,27
226,016	104,73
226,235	107,6
226,455	99,41
226,674	87,25
226,894	98,18
227,113	111,56
227,332	100,36
227,552	84,11
227,771	67,73
227,99	97,49
228,21	108,28
228,429	96,95
228,648	98,45
228,867	97,9
229,087	87,94
229,306	118,52
229,525	81,38
229,744	95,31
229,963	98,72
230,183	89,17
230,402	118,38
230,621	110,87
230,84	113,88
231,059	90,4
231,278	111,83
231,497	112,79
231,716	90,26
231,936	118,38
232,155	115,52
232,374	105,14
232,593	94,49
232,812	118,93
233,031	99,82
233,25	88,48
233,469	78,52
233,688	126,85
233,907	111,69
234,126	117,02
234,345	132,72
234,564	168,9
234,783	151,15
235,001	131,49
235,22	118,38
235,439	118,66
235,658	105,28
235,877	89,99
236,096	94,35
236,315	95,04
236,534	94,9
236,752	123,44
236,971	100,63
237,19	89,03
237,409	105,69
237,628	108,55
237,846	98,31
238,065	105
238,284	98,31
238,503	102,55
238,721	101,59
238,94	88,76
239,159	87,12
239,377	103,09
239,596	107,87
239,815	99,27
240,033	90,53
240,252	76,06
240,47	78,38
240,689	83,57
240,908	78,52
241,126	121,11
241,345	96,27
241,563	109,65
241,782	99
242	101,73
242,219	84,39
242,437	118,93
242,656	92,99
242,874	102,27
243,093	99,27
243,311	95,86
243,53	92,17
243,748	120,98
243,967	88,21
244,185	102,55
244,403	111,01
244,622	105,55
244,84	106,64
245,059	105
245,277	98,04
245,495	117,84
245,714	106,92
245,932	105,55
246,15	112,92
246,368	132,45
246,587	122,48
246,805	94,63
247,023	125,62
247,242	108,14
247,46	123,3
247,678	124,8
247,896	104,46
248,114	113,33
248,333	113,2
248,551	127,67
248,769	107,46
248,987	131,08
249,205	121,93
249,423	145,83
249,641	144,32
249,859	146,78
250,078	120,71
250,296	149,65
250,514	132,99
250,732	138,73
250,95	149,65
251,168	173,68
251,386	157,98
251,604	147,87
251,822	169,99
252,04	144,73
252,258	139,14
252,476	143,51
252,694	148,15
252,911	157,98
253,129	160,16
253,347	157,98
253,565	147,47
253,783	153,88
254,001	154,84
254,219	128,9
254,437	128,08
254,654	153,75
254,872	154,84
255,09	162,35
255,308	138,59
255,526	128,62
255,743	146,65
255,961	144,73
256,179	147,19
256,397	147,06
256,614	135,86
256,832	134,49
257,05	139,41
257,267	143,1
257,485	157,98
257,703	161,12
257,92	146,65
258,138	158,8
258,356	131,63
258,573	150,2
258,791	130,67
259,008	157,84
259,226	137,09
259,443	154,29
259,661	176,41
259,878	188,7
260,096	184,33
260,314	189,24
260,531	179,69
260,748	180,64
260,966	176,14
261,183	173,82
261,401	191,84
261,618	178,46
261,836	164,26
262,053	182,83
262,271	179
262,488	182,42
262,705	162,35
262,923	177,23
263,14	173,82
263,357	183,1
263,575	191,02
263,792	206,72
264,009	199,76
264,227	216,69
264,444	200,44
264,661	215,46
264,878	210,41
265,096	188,83
265,313	197,71
265,53	205,9
265,747	214,09
265,964	216
266,182	210
266,399	222,83
266,616	205,76
266,833	236,62
267,05	219,14
267,267	225,29
267,484	224,74
267,701	217,64
267,918	218,73
268,136	211,77
268,353	199,07
268,57	193,75
268,787	199,35
269,004	245,77
269,221	232,93
269,438	221,6
269,655	197,85
269,872	210,13
270,089	206,31
270,305	189,65
270,522	218,73
270,739	211,91
270,956	215,32
271,173	218,05
271,39	215,32
271,607	228,02
271,824	217,1
272,041	220,37
272,257	199,21
272,474	215,05
272,691	167,4
272,908	178,18
273,125	178,73
273,341	186,51
273,558	165,21
273,775	193,2
273,992	166,72
274,208	176,68
274,425	146,1
274,642	174,36
274,858	156,2
275,075	165,49
275,292	166,58
275,508	174,91
275,725	166,99
275,942	201,53
276,158	137,09
276,375	162,48
276,591	164,94
276,808	161,25
277,024	183,92
277,241	177,64
277,458	158,52
277,674	165,35
277,891	164,8
278,107	172,45
278,324	158,39
278,54	144,87
278,756	175,18
278,973	174,36
279,189	171,22
279,406	167,67
279,622	186,1
279,839	200,3
280,055	165,49
280,271	167,67
280,488	156,48
280,704	164,94
280,92	151,97
281,137	138,73
281,353	135,18
281,569	135,18
281,786	145,14
282,002	134,22
282,218	130,81
282,434	133,4
282,651	125,07
282,867	123,71
283,083	140,64
283,299	122,62
283,515	136,41
283,732	110,47
283,948	113,47
284,164	119,48
284,38	125,21
284,596	128,21
284,812	138,59
285,028	127,8
285,244	122,62
285,46	158,25
285,676	134,36
285,893	146,78
286,109	153,34
286,325	158,25
286,541	149,38
286,757	189,65
286,973	171,77
287,189	162,89
287,404	166,31
287,62	136,13
287,836	118,93
288,052	128,62
288,268	122,75
288,484	105,41
288,7	127,94
288,916	120,3
289,132	123,3
289,348	120,57
289,563	123,85
289,779	121,66
289,995	126,99
290,211	135,86
290,427	117,7
290,642	127,67
290,858	132,45
291,074	125,76
291,29	130,81
291,505	125,62
291,721	132,45
291,937	128,9
292,152	107,87
292,368	140,78
292,584	127,8
292,799	155,79
293,015	155,38
293,231	165,76
293,446	156,75
293,662	185,69
293,877	200,44
294,093	201,53
294,308	197,98
294,524	237,85
294,74	194,57
294,955	187,06
295,171	156,07
295,386	160,98
295,602	136,41
295,817	156,48
296,032	125,89
296,248	123,57
296,463	120,57
296,679	137,23
296,894	121,93
297,11	128,35
297,325	121,93
297,54	125,07
297,756	128,62
297,971	122,89
298,186	110,47
298,402	116,2
298,617	108,69
298,832	122,75
299,048	111,01
299,263	107,46
299,478	105,69
299,693	115,11
299,909	96,13
300,124	113,06
300,339	92,99
300,554	112,38
300,769	103,09
300,984	120,71
301,2	119,61
301,415	143,78
301,63	118,38
301,845	128,49
302,06	160,03
302,275	132,86
302,49	137,77
302,705	138,59
302,92	145,69
303,135	132,04
303,35	139,27
303,565	156,34
303,78	115,38
303,995	136
304,21	116,06
304,425	122,48
304,64	124,12
304,855	121,52
305,07	108,42
305,285	132,58
305,5	115,65
305,715	161,53
305,93	114,56
306,145	152,38
306,359	116,75
306,574	133,27
306,789	117,29
307,004	124,53
307,219	137,36
307,434	134,49
307,648	147,47
307,863	154,84
308,078	142
308,293	164,53
308,507	151,01
308,722	159,34
308,937	133,13
309,151	150,06
309,366	124,94
309,581	127,67
309,795	135,59
310,01	141,46
310,225	133,13
310,439	128,08
310,654	129,17
310,868	154,97
311,083	139,41
311,297	137,77
311,512	142,55
311,727	156,48
311,941	161,8
312,156	182,01
312,37	149,38
312,585	189,38
312,799	175,32
313,013	161,12
313,228	168,35
313,442	166,85
313,657	154,97
313,871	165,35
314,086	151,83
314,3	140,91
314,514	142,14
314,729	147,19
314,943	146,92
315,157	146,65
315,372	153,88
315,586	132,31
315,8	126,85
316,014	158,8
316,229	174,63
316,443	184,19
316,657	191,97
316,871	214,23
317,086	194,7
317,3	184,6
317,514	151,42
317,728	174,09
317,942	166,58
318,157	153,47
318,371	167,26
318,585	161,12
318,799	187,74
319,013	178,59
319,227	174,09
319,441	183,37
319,655	169,17
319,869	178,32
320,083	151,01
320,297	163,99
320,511	152,24
320,725	186,24
320,939	163,99
321,153	167,26
321,367	164,4
321,581	173,41
321,795	167,13
322,009	171,49
322,223	147,6
322,437	155,11
322,651	175,04
322,865	154,43
323,078	173,68
323,292	163,58
323,506	186,38
323,72	202,62
323,934	169,31
324,147	194,16
324,361	153,06
324,575	168,35
324,789	182,96
325,003	191,56
325,216	185,56
325,43	199,62
325,644	170,27
325,857	176,82
326,071	155,38
326,285	169,99
326,498	171,09
326,712	189,93
326,926	187,74
327,139	198,66
327,353	224,2
327,566	217,78
327,78	222,15
327,993	230,07
328,207	255,6
328,421	269,66
328,634	287,82
328,848	353,9
329,061	628,33
329,275	1307,84
329,488	2338,11
329,701	3614,81
329,915	4852,88
330,128	5716,71
330,342	5955,37
330,555	5564,21
330,769	4651,08
330,982	3531,39
331,195	2256,74
331,409	1394,95
331,622	770,46
331,835	445,79
332,049	288,37
332,262	255,05
332,475	232,39
332,688	225,29
332,902	223,65
333,115	229,52
333,328	184,19
333,541	218,19
333,755	216,82
333,968	216,14
334,181	209,04
334,394	220,24
334,607	201,94
334,821	227,2
335,034	212,59
335,247	197,71
335,46	194,98
335,673	202,08
335,886	209,04
336,099	210,68
336,312	188,56
336,525	209,86
336,738	204,81
336,951	204,81
337,164	219,01
337,377	227,47
337,59	227,75
337,803	216,28
338,016	210,13
338,229	263,79
338,442	232,39
338,655	227,2
338,868	203,03
339,081	208,49
339,294	231,84
339,506	224,61
339,719	222,69
339,932	253,41
340,145	274,71
340,358	246,31
340,571	217,92
340,783	217,51
340,996	212,73
341,209	233,07
341,422	224,06
341,634	210,82
341,847	219,83
342,06	223,24
342,272	241,67
342,485	235,94
342,698	233,75
342,91	228,97
343,123	205,08
343,336	231,7
343,548	220,78
343,761	219,14
343,973	216,82
344,186	229,52
344,399	225,15
344,611	220,37
344,824	193,2
345,036	214,5
345,249	220,78
345,461	234,3
345,674	228,29
345,886	221,6
346,099	227,06
346,311	239,49
346,523	255,05
346,736	234,16
346,948	226,79
347,161	223,38
347,373	229,25
347,585	247
347,798	216,82
348,01	222,15
348,222	223,24
348,435	215,18
348,647	192,11
348,859	228,97
349,072	234,57
349,284	229,52
349,496	220,1
349,708	250,82
349,921	224,74
350,133	246,04
350,345	250,68
350,557	241,81
350,769	259,01
350,981	255,32
351,194	241,81
351,406	226,24
351,618	228,7
351,83	238,39
352,042	234,3
352,254	243,31
352,466	253
352,678	276,08
352,89	234,71
353,102	269,52
353,314	266,52
353,526	294,78
353,738	284,54
353,95	277,17
354,162	286,73
354,374	312,12
354,586	330,42
354,798	314,99
355,01	316,35
355,222	331,51
355,434	328,23
355,646	302,43
355,857	321,27
356,069	317,99
356,281	319,49
356,493	322,63
356,705	318,54
356,916	297,92
357,128	284
357,34	286,32
357,552	269,39
357,764	256,83
357,975	256,42
358,187	279,63
358,399	264,2
358,61	282,08
358,822	271,3
359,034	265,43
359,245	262,83
359,457	261,47
359,669	281,54
359,88	278,94
360,092	283,31
360,303	288,77
360,515	266,38
360,726	302,84
360,938	279,63
361,149	264,2
361,361	254,37
361,573	272,12
361,784	249,73
361,995	230,75
362,207	246,86
362,418	268,57
362,63	253,28
362,841	277,03
363,053	255,6
363,264	277,99
363,475	278,54
363,687	311,44
363,898	292,87
364,109	274,03
364,321	293,01
364,532	286,04
364,743	293,96
364,955	293,96
365,166	289,05
365,377	301,2
365,588	288,37
365,8	296,28
366,011	289,05
366,222	295,74
366,433	267,07
366,645	287,55
366,856	290
367,067	318,27
367,278	302,84
367,489	302,16
367,7	268,84
367,911	289,73
368,122	271,44
368,333	267,75
368,545	274,17
368,756	282,08
368,967	275,39
369,178	293,96
369,389	289,05
369,6	295,74
369,811	316,49
370,022	326,32
370,233	311,85
370,444	329,46
370,654	321,95
370,865	294,37
371,076	295,74
371,287	299,83
371,498	293,28
371,709	287,41
371,92	276,9
372,131	313,76
372,341	262,83
372,552	287,82
372,763	288,37
372,974	279,9
373,185	283,72
373,395	266,66
373,606	269,25
373,817	282,49
374,028	282,9
374,238	277,85
374,449	300,65
374,66	319,08
374,87	308,44
375,081	305,98
375,292	291,78
375,502	288,23
375,713	274,71
375,923	292,6
376,134	269,25
376,345	293,42
376,555	301,75
376,766	296,97
376,976	311,99
377,187	306,11
377,397	297,65
377,608	290,69
377,818	267,48
378,029	281,68
378,239	285,09
378,449	287,14
378,66	272,66
378,87	268,16
379,081	273,35
379,291	277,03
379,501	271,71
379,712	301,2
379,922	278,13
380,133	294,51
380,343	278,26
380,553	277,99
380,763	294,51
380,974	298,61
381,184	293,01
381,394	290,14
381,604	279,49
381,815	276,62
382,025	267,61
382,235	261,33
382,445	269,39
382,655	278,13
382,866	274,03
383,076	287,68
383,286	284,13
383,496	329,6
383,706	282,63
383,916	291,92
384,126	293,14
384,336	318,27
384,546	304,07
384,756	285,77
384,966	303,52
385,176	301,61
385,386	293,42
385,596	302,56
385,806	302,43
386,016	326,18
386,226	292,73
386,436	302,84
386,646	291,51
386,856	305,43
387,066	279,63
387,276	270,07
387,486	257,78
387,696	267,2
387,905	261,33
388,115	257,1
388,325	269,66
388,535	282,49
388,745	290
388,954	291,37
389,164	296,01
389,374	299,42
389,584	301,06
389,793	327
390,003	319,22
390,213	345,44
390,422	297,65
390,632	307,48
390,842	279,35
391,051	294,78
391,261	301,47
391,47	297,65
391,68	277,03
391,89	310,07
392,099	290,14
392,309	287
392,518	264,47
392,728	263,79
392,937	263,52
393,147	289,87
393,356	278,94
393,566	300,11
393,775	287,14
393,985	370,15
394,194	416,84
394,404	477,32
394,613	492,75
394,822	533,58
395,032	511,73
395,241	507,91
395,45	443,87
395,66	412,06
395,869	357,45
396,078	331,37
396,288	311,99
396,497	296,97
396,706	266,38
396,916	268,84
397,125	262,01
397,334	291,51
397,543	271,98
397,752	287,82
397,962	277,17
398,171	298,61
398,38	277,99
398,589	302,84
398,798	261,33
399,007	314,17
399,216	296,69
399,426	292,46
399,635	293,42
399,844	318,4
400,053	300,79
400,262	335,33
400,471	309,25
400,68	299,42
400,889	288,64
401,098	312,26
401,307	297,51
401,516	290,28
401,725	285,63
401,934	283,04
402,143	270,62
402,351	288,77
402,56	310,35
402,769	300,38
402,978	281,95
403,187	320,31
403,396	334,65
403,605	369,46
403,813	466,68
404,022	512,55
404,231	579,72
404,44	598,7
404,649	590,51
404,857	575,9
405,066	489,89
405,275	457,8
405,483	393,49
405,692	345,44
405,901	336,42
406,109	308,57
406,318	292,46
406,527	303,11
406,735	295,06
406,944	294,51
407,153	292,87
407,361	300,65
407,57	285,36
407,778	302,84
407,987	293,69
408,195	309,8
408,404	284,54
408,612	307,89
408,821	280,86
409,029	287,96
409,238	280,17
409,446	306,93
409,655	298,47
409,863	321,41
410,071	314,03
410,28	318,27
410,488	324,14
410,696	342,3
410,905	306,8
411,113	329,73
411,321	313,9
411,53	361
411,738	339,43
411,946	364,28
412,155	354,31
412,363	341,89
412,571	327,69
412,779	333,01
412,988	356,77
413,196	338,75
413,404	339,29
413,612	339,02
413,82	326,87
414,028	317,72
414,237	332,19
414,445	328,51
414,653	374,93
414,861	529,75
415,069	830,39
415,277	1165,72
415,485	1500,76
415,693	1751,71
415,901	1861,89
416,109	1861,34
416,317	1667,33
416,525	1416,52
416,733	1176,09
416,941	956,82
417,149	775,78
417,357	621,5
417,565	576,31
417,773	550,51
417,98	577,68
418,188	679,53
418,396	757,49
418,604	880,23
418,812	993,82
419,02	1248,86
419,227	1589,92
419,435	1835,26
419,643	2102,46
419,851	2335,92
420,059	2267,66
420,266	2146,97
420,474	1843,46
420,682	1529,57
420,889	1208,31
421,097	936,48
421,305	709,15
421,512	556,65
421,72	428,31
421,928	377,38
422,135	343,52
422,343	348,71
422,55	325,91
422,758	318,4
422,966	303,93
423,173	310,76
423,381	318,27
423,588	288,09
423,796	294,92
424,003	304,89
424,211	341,75
424,418	353,9
424,625	376,43
424,833	426,26
425,04	520,33
425,248	594,06
425,455	757,21
425,662	826,71
425,87	892,79
426,077	976,48
426,284	1072,19
426,492	1133,9
426,699	1173,09
426,906	1190,97
427,114	1143,32
427,321	1028,77
427,528	911,63
427,735	796,67
427,943	671,47
428,15	562,25
428,357	467,9
428,564	419,3
428,771	375,06
428,979	404,83
429,186	440,6
429,393	558,15
429,6	629,56
429,807	665,87
430,014	685,53
430,221	681,85
430,428	608,12
430,635	565,66
430,842	484,97
431,049	475,14
431,256	429,81
431,463	384,48
431,67	340,52
431,877	348,85
432,084	333,01
432,291	379,43
432,498	430,77
432,705	564,98
432,912	635,7
433,119	733,18
433,326	796,67
433,532	824,11
433,739	807,87
433,946	777,83
434,153	684,03
434,36	653,31
434,566	577,95
434,773	549,14
434,98	489,48
435,187	422,3
435,393	355,81
435,6	370,97
435,807	351,58
436,014	329,6
436,22	302,97
436,427	325,23
436,633	298,06
436,84	338,88
437,047	311,44
437,253	326,73
437,46	323,59
437,666	333,56
437,873	322,63
438,08	345,44
438,286	326,32
438,493	308,03
438,699	342,57
438,906	332,06
439,112	311,03
439,319	343,11
439,525	330,14
439,731	332,74
439,938	316,63
440,144	328,1
440,351	308,44
440,557	317,72
440,763	302,29
440,97	322,5
441,176	295,87
441,382	304,48
441,589	312,12
441,795	322,5
442,001	305,57
442,208	305,43
442,414	319,22
442,62	312,53
442,826	324
443,032	292,87
443,239	306,93
443,445	320,72
443,651	309,39
443,857	317,17
444,063	312,26
444,269	332,6
444,476	323,73
444,682	295,6
444,888	298,74
445,094	298,2
445,3	294,78
445,506	312,67
445,712	316,76
445,918	316,08
446,124	309,8
446,33	324,68
446,536	302,29
446,742	304,75
446,948	293,83
447,154	313,35
447,36	308,3
447,566	305,84
447,771	308,85
447,977	302,29
448,183	293,42
448,389	283,72
448,595	273,62
448,801	318,81
449,006	315,67
449,212	292,05
449,418	330,83
449,624	331,78
449,83	291,51
450,035	333,56
450,241	415,61
450,447	417,93
450,652	451,25
450,858	490,02
451,064	480,6
451,269	502,31
451,475	484,7
451,681	478,14
451,886	462,58
452,092	440,87
452,297	410,7
452,503	409,2
452,709	385,3
452,914	352,81
453,12	338,06
453,325	329,05
453,531	307,34
453,736	330,69
453,942	311,58
454,147	323,32
454,352	324,82
454,558	395,95
454,763	431,72
454,969	484,01
455,174	505,86
455,379	528,39
455,585	505,04
455,79	484,56
455,995	464,49
456,201	407,83
456,406	392,95
456,611	344,48
456,817	352,13
457,022	343,11
457,227	303,52
457,432	299,15
457,638	305,43
457,843	293,01
458,048	307,75
458,253	309,12
458,458	322,36
458,663	319,9
458,869	346,66
459,074	370,15
459,279	378,75
459,484	373,56
459,689	374,79
459,894	374,65
460,099	372,33
460,304	357,72
460,509	342,98
460,714	345,98
460,919	332,74
461,124	318,68
461,329	312,8
461,534	347,76
461,739	312,26
461,944	351,17
462,149	367,01
462,354	365,78
462,558	378,48
462,763	359,5
462,968	367,69
463,173	342,57
463,378	350,76
463,583	343,11
463,787	351,72
463,992	375,2
464,197	339,84
464,402	375,06
464,606	359,77
464,811	343,52
465,016	342,98
465,221	354,04
465,425	352,67
465,63	368,65
465,835	338,88
466,039	444,15
466,244	450,15
466,448	499,03
466,653	481,42
466,858	469,95
467,062	476,64
467,267	438,28
467,471	426,13
467,676	414,66
467,88	378,34
468,085	360,73
468,289	359,77
468,494	320,18
468,698	329,6
468,903	316,08
469,107	330,83
469,311	336,29
469,516	350,08
469,72	386,39
469,925	402,51
470,129	413,7
470,333	401,55
470,538	423,26
470,742	417,8
470,946	399,77
471,15	381,62
471,355	358,54
471,559	364,82
471,763	372,61
471,967	352,4
472,172	330,01
472,376	340,38
472,58	365,51
472,784	360,59
472,988	365,78
473,193	345,71
473,397	356,49
473,601	352,54
473,805	379,57
474,009	380,39
474,213	383,53
474,417	374,11
474,621	435,14
474,825	406,06
475,029	435,68
475,233	440,05
475,437	457,66
475,641	447,97
475,845	434,32
476,049	402,78
476,253	442,51
476,457	426,94
476,661	403,32
476,865	420,25
477,068	406,6
477,272	400,87
477,476	390,35
477,68	386,12
477,884	383,25
478,088	382,03
478,291	383,66
478,495	375,88
478,699	399,91
478,903	384,48
479,106	392,68
479,31	386,12
479,514	399,09
479,717	393,36
479,921	404,28
480,125	398,41
480,328	406,87
480,532	407,83
480,736	405,24
480,939	406,33
481,143	427,9
481,346	394,31
481,55	406,87
481,753	396,09
481,957	412,2
482,161	396,09
482,364	421,76
482,568	414,11
482,771	417,52
482,974	414,38
483,178	435
483,381	427,76
483,585	440,73
483,788	429,54
483,991	436,91
484,195	459,03
484,398	447,97
484,602	410,42
484,805	459,71
485,008	422,99
485,211	424,35
485,415	415,75
485,618	422,3
485,821	419,57
486,025	402,78
486,228	426,67
486,431	454,52
486,634	433,63
486,837	470,36
487,041	462,72
487,244	475,96
487,447	475,96
487,65	486,61
487,853	503,54
488,056	517,33
488,259	524,43
488,462	555,56
488,665	545,86
488,868	559,93
489,071	518,15
489,274	529,21
489,477	510,77
489,68	489,34
489,883	490,98
490,086	445,1
490,289	443,46
490,492	462,99
490,695	435,68
490,898	453,16
491,101	436,37
491,304	472,96
491,507	426,81
491,709	469,95
491,912	468,59
492,115	474,32
492,318	488,66
492,521	538,76
492,723	569,07
492,926	628,6
493,129	689,08
493,332	702,74
493,534	703,15
493,737	644,03
493,94	637,61
494,142	602,66
494,345	575,35
494,548	530,44
494,75	534,39
494,953	537,53
495,155	529,07
495,358	519,51
495,561	508,59
495,763	501,63
495,966	486,88
496,168	476,51
496,371	470,5
496,573	471,32
496,776	529,75
496,978	693,86
497,181	939,35
497,383	1322,86
497,585	1749,25
497,788	2127,58
497,99	2356,4
498,193	2421,12
498,395	2329,37
498,597	2114,2
498,8	1841,41
499,002	1570,39
499,204	1294,87
499,406	1053,35
499,609	853,2
499,811	716,66
500,013	603,89
500,216	541,9
500,418	495,76
500,62	495,35
500,822	480,33
501,024	482,65
501,226	473,91
501,429	472,41
501,631	459,17
501,833	457,66
502,035	454,39
502,237	449,2
502,439	448,38
502,641	472,55
502,843	470,91
503,045	491,93
503,247	498,08
503,449	489,89
503,651	505,18
503,853	494,66
504,055	494,94
504,257	484,7
504,459	512,41
504,661	512,55
504,863	550,91
505,065	521,97
505,267	535,49
505,468	559,52
505,67	560,88
505,872	540,68
506,074	565,39
506,276	559,79
506,477	527,3
506,679	519,65
506,881	509,96
507,083	526,34
507,284	515,01
507,486	482,79
507,688	480,87
507,89	516,65
508,091	515,28
508,293	502,17
508,494	506,95
508,696	492,89
508,898	485,93
509,099	498,35
509,301	465,31
509,502	471,45
509,704	473,91
509,905	479,51
510,107	505,72
510,309	489,61
510,51	478,01
510,711	487,56
510,913	506
511,114	500,53
511,316	523,75
511,517	511,18
511,719	529,89
511,92	517,46
512,121	511,87
512,323	500,67
512,524	513,92
512,725	484,83
512,927	519,24
513,128	482,24
513,329	480,06
513,531	499,17
513,732	504,9
513,933	511,32
514,134	580,68
514,336	678,98
514,537	814,56
514,738	928,83
514,939	1031,37
515,14	1067,41
515,341	1071,78
515,542	1082,43
515,744	1033,01
515,945	965,29
516,146	907,13
516,347	838,31
516,548	752,16
516,749	714,75
516,95	652,22
517,151	602,93
517,352	546,96
517,553	571,94
517,754	607,03
517,955	633,65
518,156	660,28
518,357	682,94
518,558	704,1
518,758	728,68
518,959	681,71
519,16	679,12
519,361	658,5
519,562	632,97
519,763	597,47
519,963	569,48
520,164	573,31
520,365	560,88
520,566	571,53
520,767	581,63
520,967	594,06
521,168	605,8
521,369	638,84
521,569	691,82
521,77	718,58
521,971	752,84
522,171	701,24
522,372	718,03
522,573	647,72
522,773	648,4
522,974	630,92
523,174	606,76
523,375	603,75
523,575	607,58
523,776	554,19
523,976	572,9
524,177	583
524,377	608,8
524,578	622,73
524,778	635,02
524,979	658,77
525,179	663,01
525,38	636,11
525,58	639,93
525,78	623,96
525,981	583
526,181	608,39
526,381	584,23
526,582	580,41
526,782	580,27
526,982	567,3
527,183	575,76
527,383	570,44
527,583	581,63
527,783	559,52
527,984	602,8
528,184	592,15
528,384	600,75
528,584	606,35
528,784	617,54
528,984	575,08
529,184	589,01
529,385	578,63
529,585	558,42
529,785	566,89
529,985	578,9
530,185	567,84
530,385	593,92
530,585	581,63
530,785	603,89
530,985	582,73
531,185	611,53
531,385	607,03
531,585	627,65
531,785	603,62
531,985	620,82
532,185	598,84
532,384	601,98
532,584	596,65
532,784	601,98
532,984	590,37
533,184	624,78
533,384	586,14
533,583	585,46
533,783	598,02
533,983	595,83
534,183	612,08
534,383	614,81
534,582	594,33
534,782	620,41
534,982	599,25
535,181	628,19
535,381	629,42
535,581	617
535,78	607,3
535,98	615,63
536,18	619,86
536,379	634,06
536,579	637,07
536,778	672,15
536,978	638,57
537,177	661,1
537,377	644,3
537,576	670,52
537,776	650,86
537,975	654,95
538,175	647,72
538,374	638,29
538,574	647,03
538,773	634,47
538,972	653,59
539,172	646,21
539,371	661,1
539,571	649,08
539,77	654,13
539,969	655,91
540,169	658,09
540,368	644,17
540,567	680,89
540,766	676,66
540,966	687,58
541,165	700,14
541,364	688,81
541,563	689,08
541,762	707,24
541,962	703,01
542,161	702,74
542,36	714,07
542,559	687,31
542,758	712,16
542,957	687,72
543,156	677,21
543,355	680,62
543,555	710,66
543,754	733,05
543,953	745,06
544,152	755,17
544,351	756,12
544,55	787,39
544,749	793,8
544,948	806,77
545,146	791,07
545,345	822,07
545,544	773,87
545,743	758,17
545,942	743,29
546,141	728,82
546,34	713,52
546,539	730,73
546,737	708,88
546,936	700,01
547,135	692,91
547,334	689,49
547,533	690,72
547,731	667,92
547,93	695,91
548,129	692,77
548,327	728,54
548,526	749,43
548,725	818,93
548,923	914,63
549,122	1000,79
549,321	1043,38
549,519	1059,22
549,718	1059,63
549,916	1029,32
550,115	1016,35
550,314	980,31
550,512	922,28
550,711	888,28
550,909	849,65
551,108	834,9
551,306	781,79
551,505	767,86
551,703	767,45
551,901	746,15
552,1	752,84
552,298	752,98
552,497	780,97
552,695	784,11
552,893	776,74
553,092	809,64
553,29	774,01
553,488	784,66
553,687	781,65
553,885	791,48
554,083	777,15
554,281	820,29
554,48	829,71
554,678	837,36
554,876	876,41
555,074	918,32
555,272	965,29
555,471	1051,98
555,669	1093,63
555,867	1080,11
556,065	1068,64
556,263	1066,46
556,461	1065,23
556,659	1057,99
556,857	1041,61
557,055	1042,02
557,253	1007,48
557,451	977,71
557,649	985,63
557,847	964,33
558,045	907,4
558,243	921,46
558,441	920,64
558,639	928,97
558,837	906,85
559,035	919
559,233	930,61
559,431	946,45
559,628	994,78
559,826	1064,68
560,024	1097,18
560,222	1171,31
560,42	1190,02
560,617	1212,27
560,815	1183,19
561,013	1159,43
561,211	1118,34
561,408	1126,53
561,606	1097,18
561,804	1107,01
562,001	1077,65
562,199	1063,45
562,397	1059,36
562,594	1037,79
562,792	1018,67
562,99	1037,1
563,187	1045,7
563,385	1050,62
563,582	1029,73
563,78	1072,74
563,977	1098,54
564,175	1117,66
564,372	1171,59
564,57	1215,41
564,767	1260,06
564,965	1258,28
565,162	1231,52
565,359	1235,89
565,557	1232,34
565,754	1211,32
565,952	1217,19
566,149	1198,62
566,346	1209
566,544	1240,26
566,741	1264,56
566,938	1486,84
567,135	2080,2
567,333	3224,2
567,53	5150,11
567,727	7915,96
567,924	11413,34
568,121	14975,99
568,319	17987,87
568,516	19849,06
568,713	19936,44
568,91	18899,62
569,107	16754,58
569,304	14180,56
569,501	11685,45
569,698	9393,77
569,896	7391,13
570,093	5726,54
570,29	4272,21
570,487	3281,13
570,684	2558,33
570,881	2143,28
571,078	1880,32
571,275	1739,42
571,471	1649,17
571,668	1674,84
571,865	1663,51
572,062	1672,66
572,259	1714,3
572,456	1739,69
572,653	1780,65
572,85	1871,17
573,046	2007,7
573,243	2142,32
573,44	2227,79
573,637	2379,34
573,834	2507,27
574,03	2571,85
574,227	2677,53
574,424	2675,89
574,62	2694,59
574,817	2678,89
575,014	2650,77
575,21	2671,93
575,407	2596,97
575,604	2571,71
575,8	2519,42
575,997	2566,25
576,193	2498,12
576,39	2518,6
576,586	2569,53
576,783	2591,51
576,98	2592,74
577,176	2651,58
577,373	2652,81
577,569	2670,43
577,765	2662,37
577,962	2733,37
578,158	2793,85
578,355	2830,3
578,551	2852,01
578,747	2939,67
578,944	2955,91
579,14	3048,21
579,336	3057,49
579,533	3076,33
579,729	3095,72
579,925	3141,19
580,122	3237,58
580,318	3277,85
580,514	3344,21
580,71	3479,37
580,907	3527,98
581,103	3630,79
581,299	3742,61
581,495	3892,65
581,691	3926,79
581,887	4088,03
582,083	4284,36
582,28	4418,98
582,476	4626,78
582,672	4771,92
582,868	4960,87
583,064	5195,44
583,26	5415,11
583,456	5611,99
583,652	5965,74
583,848	6689,22
584,044	7523,84
584,24	8435,73
584,436	9822,89
584,632	11355,32
584,827	12305,85
585,023	13231,25
585,219	14070,38
585,415	14355,32
585,611	14083,89
585,807	13998,29
586,003	14116,66
586,198	13976,85
586,394	14205,27
586,59	15150,61
586,786	16505,55
586,981	18424,08
587,177	22395,91
587,373	64388,29
587,568	64388,29
587,764	64388,29
587,96	64388,29
588,155	64388,29
588,351	64388,29
588,547	64388,29
588,742	64388,29
588,938	64388,29
589,133	64388,29
589,329	64388,29
589,524	64388,29
589,72	64388,29
589,915	64388,29
590,111	64388,29
590,306	64388,29
590,502	64388,29
590,697	64388,29
590,893	64388,29
591,088	64388,29
591,284	64388,29
591,479	64388,29
591,674	64388,29
591,87	64388,29
592,065	64388,29
592,26	64388,29
592,456	64388,29
592,651	64388,29
592,846	64388,29
593,041	64388,29
593,237	64388,29
593,432	64388,29
593,627	64388,29
593,822	64388,29
594,017	64388,29
594,213	64388,29
594,408	64388,29
594,603	64388,29
594,798	64388,29
594,993	64388,29
595,188	64388,29
595,383	64388,29
595,578	64388,29
595,773	64388,29
595,968	64388,29
596,163	64388,29
596,358	64388,29
596,553	64388,29
596,748	64388,29
596,943	64388,29
597,138	64388,29
597,333	64388,29
597,528	64388,29
597,723	64388,29
597,918	64388,29
598,113	64388,29
598,308	64388,29
598,502	64388,29
598,697	64388,29
598,892	64388,29
599,087	64388,29
599,281	64388,29
599,476	64388,29
599,671	64388,29
599,866	64388,29
600,06	64388,29
600,255	64388,29
600,45	64388,29
600,644	64388,29
600,839	64388,29
601,034	64388,29
601,228	64388,29
601,423	64388,29
601,617	64388,29
601,812	64388,29
602,007	64388,29
602,201	64388,29
602,396	64388,29
602,59	64388,29
602,785	64388,29
602,979	64388,29
603,173	64388,29
603,368	64388,29
603,562	64388,29
603,757	64388,29
603,951	64388,29
604,146	64388,29
604,34	64388,29
604,534	64388,29
604,729	64388,29
604,923	64388,29
605,117	64388,29
605,311	64388,29
605,506	64388,29
605,7	64388,29
605,894	64388,29
606,088	64388,29
606,283	64388,29
606,477	64388,29
606,671	64388,29
606,865	64388,29
607,059	64388,29
607,253	64388,29
607,448	64388,29
607,642	64388,29
607,836	64388,29
608,03	64388,29
608,224	64388,29
608,418	64388,29
608,612	64388,29
608,806	64388,29
609	64388,29
609,194	64388,29
609,388	64388,29
609,582	64388,29
609,776	64388,29
609,97	64388,29
610,163	64388,29
610,357	64388,29
610,551	64388,29
610,745	64388,29
610,939	64388,29
611,133	64388,29
611,327	64388,29
611,52	64388,29
611,714	64388,29
611,908	64388,29
612,102	64388,29
612,295	64388,29
612,489	64388,29
612,683	64388,29
612,876	64388,29
613,07	64388,29
613,264	64388,29
613,457	64388,29
613,651	64388,29
613,844	64388,29
614,038	64388,29
614,232	64388,29
614,425	64388,29
614,619	64388,29
614,812	64388,29
615,006	64388,29
615,199	64388,29
615,393	64388,29
615,586	64388,29
615,78	64388,29
615,973	64388,29
616,166	64388,29
616,36	64388,29
616,553	64388,29
616,747	64388,29
616,94	64388,29
617,133	64388,29
617,327	64388,29
617,52	64388,29
617,713	64388,29
617,906	64388,29
618,1	64388,29
618,293	57841,61
618,486	57726,93
618,679	7647,26
618,873	11177,96
619,066	1148,79
619,259	1125,03
619,452	1132,4
619,645	1092,26
619,838	1082,7
620,031	1076,01
620,224	1068,64
620,418	1101,55
620,611	1103,05
620,804	1143,6
620,997	1153,02
621,19	1163,8
621,383	1155,48
621,576	1133,49
621,769	1116,56
621,962	1102,23
622,154	1062,09
622,347	1033,28
622,54	1020,86
622,733	998,6
622,926	993
623,119	979,62
623,312	966,52
623,504	937,16
623,697	966,52
623,89	958,05
624,083	947,95
624,276	976,76
624,468	950,68
624,661	966,79
624,854	961,46
625,046	934,02
625,239	912,04
625,432	927,88
625,624	902,89
625,817	907,26
626,01	886,24
626,202	883,78
626,395	884,87
626,587	917,64
626,78	907,81
626,972	880,5
627,165	883,51
627,358	889,79
627,55	903,85
627,742	851,42
627,935	893,74
628,127	907,26
628,32	878,18
628,512	866,44
628,705	878,32
628,897	866,03
629,089	897,02
629,282	923,51
629,474	932,66
629,666	920,78
629,859	925,28
630,051	952,73
630,243	919,96
630,435	956,14
630,628	942,9
630,82	913
631,012	899,48
631,204	874,9
631,396	874,9
631,589	858,66
631,781	835,86
631,973	821,25
632,165	819,2
632,357	808,82
632,549	788,21
632,741	808,28
632,933	779,2
633,125	782,61
633,317	776,19
633,509	779,88
633,701	751,75
633,893	755,03
634,085	771,96
634,277	759,4
634,469	757,62
634,661	766,36
634,853	752,71
635,045	760,9
635,237	735,91
635,428	750,52
635,62	750,11
635,812	764,86
636,004	768,82
636,196	797,22
636,387	777,56
636,579	798,58
636,771	787,25
636,963	780,7
637,154	756,12
637,346	776,06
637,538	763,63
637,729	786,02
637,921	799,4
638,112	846,51
638,304	804,59
638,496	805,14
638,687	780,83
638,879	781,11
639,07	726,9
639,262	742,6
639,453	717,07
639,645	717,21
639,836	682,94
640,028	710,25
640,219	701,51
640,411	730,59
640,602	785,34
640,793	878,86
640,985	963,24
641,176	1036,69
641,368	1121,34
641,559	1120,52
641,75	1080,52
641,942	1030,69
642,133	958,32
642,324	884,32
642,515	834,49
642,707	810,46
642,898	746,43
643,089	704,24
643,28	721,31
643,471	696,46
643,663	677,21
643,854	677,34
644,045	665,6
644,236	649,49
644,427	640,34
644,618	636,52
644,809	633,52
645	630,92
645,191	623,55
645,382	641,84
645,573	630,51
645,764	638,57
645,955	635,15
646,146	627,65
646,337	616,18
646,528	628,06
646,719	619,86
646,91	619,86
647,101	621,91
647,291	616,18
647,482	601,02
647,673	606,21
647,864	590,65
648,055	596,93
648,246	596,93
648,436	586,55
648,627	606,07
648,818	623,28
649,008	621,23
649,199	619,45
649,39	612,9
649,581	616,86
649,771	619,45
649,962	619,04
650,152	610,31
650,343	596,93
650,534	588,05
650,724	579,18
650,915	579,86
651,105	581,22
651,296	540,81
651,486	552,69
651,677	569,35
651,867	550,37
652,058	542,31
652,248	548,32
652,439	542,59
652,629	552,83
652,819	564,43
653,01	559,93
653,2	581,63
653,39	570,03
653,581	596,24
653,771	567,84
653,961	552,83
654,152	570,03
654,342	551,46
654,532	528,11
654,722	530,03
654,913	528,93
655,103	517,46
655,293	511,73
655,483	548,05
655,673	536,17
655,863	536,72
656,054	536,31
656,244	543,95
656,434	535,76
656,624	518,56
656,814	524,84
657,004	526,2
657,194	523,88
657,384	514,73
657,574	505,59
657,764	485,52
657,954	503,27
658,144	495,89
658,334	519,1
658,524	475,82
658,714	486,2
658,903	478,96
659,093	494,66
659,283	487,56
659,473	499,72
659,663	512,96
659,853	533,71
660,042	517,6
660,232	525,38
660,422	537,94
660,612	519,79
660,801	496,99
660,991	526,07
661,181	496,3
661,37	497,12
661,56	497,67
661,75	486,06
661,939	464,08
662,129	471,04
662,319	465,99
662,508	468,86
662,698	490,16
662,887	466,4
663,077	463,53
663,266	470,23
663,456	447,29
663,645	446,88
663,835	452,2
664,024	442,65
664,214	458,21
664,403	443,19
664,592	453,02
664,782	468,72
664,971	430,08
665,161	458,76
665,35	462,31
665,539	457,8
665,728	453,57
665,918	504,9
666,107	485,65
666,296	516,37
666,486	505,31
666,675	563,07
666,864	636,25
667,053	705,6
667,242	776,6
667,431	819,88
667,621	824,93
667,81	777,01
667,999	752,98
668,188	693,86
668,377	630,24
668,566	577,81
668,755	548,73
668,944	497,94
669,133	494,53
669,322	470,91
669,511	445,51
669,7	462,03
669,889	435,14
670,078	435,27
670,267	399,23
670,456	431,59
670,645	407,42
670,834	406,46
671,022	391,17
671,211	418,21
671,4	418,89
671,589	404,28
671,778	415,2
671,966	411,79
672,155	402,51
672,344	442,1
672,533	385,99
672,721	382,85
672,91	402,37
673,099	387,76
673,287	386,8
673,476	393,49
673,665	405,51
673,853	409,2
674,042	458,48
674,23	549,55
674,419	691,54
674,607	862,89
674,796	995,6
674,984	1113,83
675,173	1109,87
675,361	1032,46
675,55	930,88
675,738	868,08
675,927	780,01
676,115	683,62
676,304	601,3
676,492	557,33
676,68	528,8
676,869	461,49
677,057	449,34
677,245	430,63
677,434	396,63
677,622	407,01
677,81	378,34
677,998	376,02
678,187	385,58
678,375	370,69
678,563	337,24
678,751	364,41
678,939	358,54
679,128	358,13
679,316	349,39
679,504	342,98
679,692	350,9
679,88	370,15
680,068	345,03
680,256	362,23
680,444	343,93
680,632	357,18
680,82	350,21
681,008	339,7
681,196	373,15
681,384	351,17
681,572	347,35
681,76	349,12
681,948	354,04
682,136	347,62
682,324	357,72
682,511	350,62
682,699	343,25
682,887	343,25
683,075	343,8
683,263	325,09
683,451	336,97
683,638	341,89
683,826	330,55
684,014	341,75
684,201	336,29
684,389	351,31
684,577	333,28
684,765	338,47
684,952	350,9
685,14	358,68
685,327	344,62
685,515	372,2
685,703	361,82
685,89	411,11
686,078	520,61
686,265	663,28
686,453	764,45
686,64	882,28
686,828	983,86
687,015	971,7
687,203	962,28
687,39	838,18
687,578	764,45
687,765	709,29
687,952	630,1
688,14	594,47
688,327	565,52
688,514	522,24
688,702	468,31
688,889	455,62
689,076	427,49
689,264	410,7
689,451	380,52
689,638	364,28
689,825	351,44
690,012	331,78
690,2	364
690,387	352,54
690,574	367,69
690,761	360,18
690,948	348,99
691,135	328,1
691,322	326,59
691,51	367,55
691,697	341,89
691,884	344,75
692,071	354,45
692,258	353,76
692,445	388,72
692,632	406,87
692,819	461,21
693,006	538,63
693,192	606,76
693,379	642,66
693,566	670,65
693,753	636,11
693,94	622,46
694,127	602,39
694,314	541,08
694,501	542,86
694,687	587,23
694,874	760,49
695,061	1929,74
695,248	5511,37
695,434	11855,02
695,621	20887,11
695,808	31324,24
695,994	41628,94
696,181	49008,04
696,368	50542,38
696,554	47633,17
696,741	40982,6
696,928	33757,23
697,114	26564,21
697,301	20230,39
697,487	15463,4
697,674	11326,64
697,86	8160,62
698,047	5803,95
698,233	4223,33
698,42	3074,01
698,606	2353,54
698,793	1799,36
698,979	1471,55
699,165	1135,41
699,352	920,1
699,538	730,45
699,725	614,54
699,911	561,02
700,097	466,54
700,284	435
700,47	436,77
700,656	382,98
700,842	381,34
701,029	361,68
701,215	363,59
701,401	338,75
701,587	386,94
701,773	411,65
701,96	544,09
702,146	626,96
702,332	762,95
702,518	871,08
702,704	970,48
702,89	943,99
703,076	887,87
703,262	825,48
703,448	734,14
703,634	647,03
703,82	602,39
704,006	542,86
704,192	484,97
704,378	468,18
704,564	451,38
704,75	434,04
704,936	469,27
705,122	727,59
705,307	1908,17
705,493	4737,65
705,679	9002,88
705,865	14780,75
706,051	20942,27
706,237	26837
706,422	29742,93
706,608	29539,78
706,794	26990,19
706,979	22700,93
707,165	18238,95
707,351	14127,58
707,536	10714,85
707,722	8134,54
707,908	5936,66
708,093	4378,3
708,279	3137,36
708,465	2274,35
708,65	1756,62
708,836	1408,33
709,021	1109,46
709,207	927,2
709,392	769,36
709,578	675,43
709,763	594,2
709,949	511,18
710,134	506,68
710,319	501,63
710,505	490,84
710,69	445,92
710,876	446,06
711,061	407,28
711,246	381,48
711,431	390,49
711,617	372,88
711,802	375,61
711,987	369,87
712,173	377,38
712,358	385,58
712,543	356,08
712,728	367,28
712,913	373,97
713,099	407,01
713,284	529,75
713,469	811,01
713,654	1242,72
713,839	1841,54
714,024	2476,96
714,209	3014,48
714,394	3365,92
714,579	3315,26
714,764	3081,39
714,949	2662,78
715,134	2212,23
715,319	1799,22
715,504	1446,29
715,689	1197,12
715,874	915,45
716,059	769,09
716,244	648,94
716,429	539,99
716,613	488,93
716,798	440,05
716,983	382,71
717,168	399,09
717,353	348,44
717,537	358,41
717,722	326,32
717,907	351,03
718,092	291,37
718,276	321,41
718,461	303,11
718,646	296,15
718,83	275,94
719,015	298,06
719,2	304,75
719,384	327,14
719,569	339,29
719,753	363,46
719,938	404,83
720,122	407,56
720,307	467,9
720,491	448,24
720,676	423,94
720,86	435,55
721,045	407,97
721,229	387,21
721,414	348,58
721,598	317,04
721,782	332,46
721,967	322,5
722,151	319,49
722,335	325,37
722,52	303,52
722,704	307,34
722,888	298,2
723,073	306,25
723,257	277,03
723,441	300,79
723,625	282,22
723,809	304,89
723,994	299,83
724,178	295,33
724,362	300,79
724,546	318,27
724,73	328,23
724,914	294,78
725,098	311,03
725,282	295,47
725,466	333,83
725,65	422,99
725,834	809,78
726,018	1809,19
726,202	3276,35
726,386	5184,1
726,57	7417,89
726,754	9467,91
726,938	10815,06
727,122	11037,33
727,306	10195,07
727,49	8830,17
727,674	7184,29
727,857	5597,93
728,041	4238,08
728,225	3244,81
728,409	2379,34
728,593	1777,65
728,776	1314,4
728,96	1010,75
729,144	786,84
729,327	663,28
729,511	571,12
729,695	519,38
729,878	496,99
730,062	475,55
730,246	481,69
730,429	485,11
730,613	482,1
730,796	494,39
730,98	461,21
731,163	485,38
731,347	469,27
731,53	442,92
731,714	381,21
731,897	368,65
732,081	331,65
732,264	339,7
732,448	336,56
732,631	332,74
732,814	300,52
732,998	310,89
733,181	303,79
733,364	323,73
733,548	317,99
733,731	336,7
733,914	334,79
734,098	385,99
734,281	424,9
734,464	473,37
734,647	546,96
734,83	580,41
735,014	602,11
735,197	644,03
735,38	609,9
735,563	580,54
735,746	578,08
735,929	586,96
736,112	661,37
736,295	764,86
736,478	906,17
736,661	1205,99
736,844	2153,52
737,027	5023,68
737,21	10481,11
737,393	18261,89
737,576	27422,45
737,759	37275,23
737,942	44807,66
738,125	48358,15
738,308	46910,1
738,491	42125,77
738,673	35112,3
738,856	27179,83
739,039	20176,46
739,222	14747,57
739,405	10632,52
739,587	7383,08
739,77	5037,6
739,953	3509,27
740,136	2485,43
740,318	1928,38
740,501	1609,03
740,684	1414,75
740,866	1259,65
741,049	1170,36
741,231	1025,5
741,414	883,23
741,597	768
741,779	670,93
741,962	579,45
742,144	542,59
742,327	510,77
742,509	529,07
742,692	526,89
742,874	575,22
743,056	569,62
743,239	577,54
743,421	558,7
743,604	525,52
743,786	487,43
743,968	462,85
744,151	428,86
744,333	391,72
744,515	371,51
744,698	356,22
744,88	342,02
745,062	355,95
745,244	334,24
745,426	344,62
745,609	332,06
745,791	331,24
745,973	346,53
746,155	384,21
746,337	399,37
746,519	446,74
746,701	413,29
746,884	449,61
747,066	446,47
747,248	463,13
747,43	456,3
747,612	450,97
747,794	465,31
747,976	496,17
748,158	522,11
748,339	540,13
748,521	573,44
748,703	845,82
748,885	1947,49
749,067	4856,7
749,249	9730,87
749,431	16138,82
749,613	23414,57
749,794	31621,74
749,976	37796,5
750,158	42681,46
750,34	45246,6
750,521	47563,54
750,703	48501,65
750,885	49856,99
751,066	49323,02
751,248	46825,32
751,43	41732,02
751,611	34761,96
751,793	27213,69
751,975	19999,79
752,156	14188,75
752,338	10071,1
752,519	6940,3
752,701	4947,63
752,882	3576,72
753,064	2824,71
753,245	2244,31
753,427	1961,28
753,608	1736,14
753,79	1549,23
753,971	1374,06
754,152	1250,09
754,334	1125,98
754,515	993,41
754,697	835,04
754,878	733,87
755,059	640,34
755,24	597,75
755,422	528,8
755,603	487,84
755,784	452,07
755,965	476,51
756,147	417,11
756,328	448,11
756,509	419,16
756,69	425,85
756,871	415,75
757,052	445,1
757,234	413,02
757,415	415,2
757,596	397,32
757,777	423,94
757,958	437,46
758,139	426,94
758,32	421,07
758,501	451,52
758,682	451,38
758,863	423,94
759,044	450,29
759,225	452,07
759,405	461,21
759,586	461,08
759,767	509,14
759,948	524,15
760,129	535,49
760,31	571,94
760,49	614,27
760,671	663,28
760,852	693,32
761,033	716,94
761,213	758,99
761,394	805,96
761,575	947,67
761,756	1667,06
761,936	5159,25
762,117	16662,15
762,297	39147,07
762,478	64388,29
762,659	64388,29
762,839	64388,29
763,02	64388,29
763,2	64388,29
763,381	64388,29
763,561	64388,29
763,742	64388,29
763,922	64388,29
764,103	64388,29
764,283	64388,29
764,464	64388,29
764,644	64388,29
764,824	64388,29
765,005	64388,29
765,185	64388,29
765,365	64388,29
765,546	64388,29
765,726	63379,46
765,906	42824,13
766,087	26507,42
766,267	14184,93
766,447	10788,85
766,627	9000,29
766,807	7083,25
766,988	5223,97
767,168	3688,81
767,348	2683,67
767,528	1972,48
767,708	1504,59
767,888	1240,4
768,068	1061,95
768,248	1001,74
768,428	1065,36
768,608	1412,56
768,788	1968,79
768,968	2740,74
769,148	3543,54
769,328	4397,68
769,508	4848,92
769,688	4878,14
769,868	4423,49
770,048	3696,05
770,228	2962,19
770,408	2232,3
770,588	1797,31
770,767	2245,68
770,947	5162,53
771,127	12660,01
771,307	24223,39
771,487	38919,34
771,666	54348,87
771,846	64388,29
772,026	64388,29
772,205	64388,29
772,385	64388,29
772,565	59874,97
772,744	44116,4
772,924	28045,17
773,103	17502,63
773,283	11359,55
773,463	7480,01
773,642	5342,21
773,822	4014,58
774,001	3341,07
774,181	2788,39
774,36	2496,76
774,54	2210,04
774,719	2080,06
774,898	1889,19
775,078	1756,08
775,257	1663,1
775,437	1517,69
775,616	1300,06
775,795	1128,03
775,975	900,71
776,154	794,9
776,333	644,71
776,512	584,23
776,692	513,51
776,871	464,76
777,05	443,19
777,229	407,56
777,408	363,59
777,588	370,01
777,767	365,78
777,946	338,34
778,125	332,19
778,304	361,82
778,483	337,65
778,662	363,32
778,841	324,41
779,02	335,33
779,199	329,46
779,378	382,57
779,557	354,31
779,736	348,58
779,915	351,03
780,094	333,69
780,273	331,78
780,452	310,62
780,631	299,01
780,81	309,94
780,988	309,66
781,167	331,37
781,346	326,32
781,525	298,2
781,704	295,19
781,882	331,65
782,061	311,3
782,24	294,92
782,418	309,66
782,597	294,51
782,776	271,3
782,954	304,75
783,133	292,87
783,312	288,5
783,49	268,3
783,669	264,75
783,847	262,29
784,026	302,97
784,204	295,6
784,383	307,34
784,561	283,72
784,74	292,73
784,918	311,3
785,097	304,07
785,275	293,01
785,454	310,35
785,632	300,93
785,81	313,21
785,989	312,12
786,167	308,57
786,345	306,39
786,524	305,7
786,702	313,49
786,88	315,54
787,058	295,33
787,237	308,71
787,415	281,54
787,593	298,47
787,771	305,02
787,949	294,65
788,127	343,25
788,306	372,88
788,484	385,3
788,662	414,25
788,84	374,79
789,018	409,33
789,196	348,99
789,374	332,19
789,552	326,73
789,73	329,32
789,908	297,24
790,086	325,77
790,264	348,58
790,442	347,35
790,62	345,85
790,797	351,99
790,975	339,43
791,153	361,27
791,331	367,01
791,509	369,19
791,687	366,6
791,864	386,39
792,042	391,99
792,22	391,04
792,398	392,81
792,575	424,21
792,753	425,17
792,931	507,91
793,108	773,46
793,286	2293,87
793,463	6066,37
793,641	12365,92
793,819	19907,77
793,996	28229,49
794,174	36124,81
794,351	40858,35
794,529	40341,31
794,706	36147,62
794,884	29135,37
795,061	21099,69
795,239	13779,15
795,416	8625,37
795,593	5689,13
795,771	4210,64
795,948	3196,07
796,126	2596,84
796,303	2169,63
796,48	1913,36
796,658	1695,05
796,835	1561,38
797,012	1393,04
797,189	1329,01
797,367	1267,98
797,544	1219,78
797,721	1156,57
797,898	1135,68
798,075	1070,28
798,252	1020,45
798,43	944,67
798,607	874,77
798,784	860,84
798,961	1152,74
799,138	2317,49
799,315	4907,35
799,492	8433,82
799,669	12748,48
799,846	17847,1
800,023	24148,02
800,2	30560,89
800,377	35855,71
800,554	40230,17
800,731	44105,48
800,907	45759,14
801,084	44293,21
801,261	39438,7
801,438	32824,31
801,615	25077,12
801,792	17607,9
801,968	11472,05
802,145	7690,27
802,322	5577,45
802,499	4352,08
802,675	3501,08
802,852	2970,11
803,029	2532,12
803,205	2263,56
803,382	2029,96
803,558	1881,41
803,735	1750,34
803,912	1633,2
804,088	1501,72
804,265	1414,07
804,441	1359,18
804,618	1272,07
804,794	1169,4
804,971	1087,21
805,147	934,57
805,324	834,35
805,5	737,96
805,676	661,1
805,853	612,35
806,029	570,03
806,206	533,3
806,382	536,44
806,558	543
806,735	536,72
806,911	559,79
807,087	572,35
807,263	598,97
807,44	658,37
807,616	673,38
807,792	715,84
807,968	789,16
808,144	838,18
808,32	913,27
808,497	1087,07
808,673	1807,96
808,849	4157,11
809,025	9152,52
809,201	16298,29
809,377	24700,43
809,553	33187,62
809,729	41461,14
809,905	48561,86
810,081	57138,75
810,257	64388,29
810,433	64388,29
810,609	64388,29
810,785	64388,29
810,96	64388,29
811,136	64388,29
811,312	64388,29
811,488	64388,29
811,664	64388,29
811,84	64388,29
812,015	64388,29
812,191	64388,29
812,367	64388,29
812,542	58344,46
812,718	36333,98
812,894	14018,49
813,07	7574,08
813,245	6417,94
813,421	5682,72
813,596	5114,2
813,772	4710,07
813,948	4239,31
814,123	3984,68
814,299	3679,94
814,474	3395
814,65	3201,81
814,825	3054,35
815,001	2744,84
815,176	2467,13
815,352	2111,47
815,527	1799,49
815,702	1478,51
815,878	1261,83
816,053	1081,07
816,228	960,65
816,404	936,48
816,579	1155,88
816,754	1999,1
816,93	3977,03
817,105	6937,71
817,28	10531,76
817,455	14296,88
817,631	18025,41
817,806	21030,88
817,981	23686,14
818,156	26235,31
818,331	29488,17
818,506	32460,86
818,681	35855,98
818,856	39017,91
819,032	40105,93
819,207	37768,92
819,382	33024,33
819,557	26385,09
819,732	19614,36
819,907	13560,3
820,082	9373,43
820,256	6759,67
820,431	5281,72
820,606	4213,09
820,781	3491,8
820,956	2967,65
821,131	2599,7
821,306	2314,08
821,481	2107,51
821,655	1976,3
821,83	1814,78
822,005	1689,18
822,18	1551,96
822,354	1448,06
822,529	1363,96
822,704	1288,73
822,878	1213,09
823,053	1143,73
823,228	1014,58
823,402	923,1
823,577	776,33
823,751	644,71
823,926	585,46
824,101	522,65
824,275	512,69
824,45	507,09
824,624	638,16
824,799	1232,07
824,973	2583,18
825,147	4969,75
825,322	8212,5
825,496	11914,96
825,671	15728,68
825,845	18859,07
826,019	20286,1
826,194	19616,82
826,368	17323,64
826,542	14088,53
826,717	10652,18
826,891	7413,66
827,065	5182,6
827,239	3727,31
827,414	2841,64
827,588	2236,8
827,762	1831,99
827,936	1497,76
828,11	1311,67
828,284	1122,57
828,458	1041,34
828,632	927,33
828,807	868,9
828,981	820,29
829,155	796,53
829,329	714,62
829,503	721,72
829,677	709,84
829,851	681,85
830,025	642,12
830,198	608,67
830,372	532,62
830,546	482,65
830,72	420,12
830,894	340,38
831,068	301,2
831,242	257,92
831,415	242,35
831,589	227,34
831,763	227,06
831,937	205,9
832,11	189,93
832,284	199,89
832,458	181,87
832,631	179,69
832,805	186,92
832,979	194,57
833,152	186,38
833,326	188,01
833,5	162,35
833,673	174,77
833,847	158,52
834,02	175,45
834,194	184,74
834,367	178,46
834,541	173,68
834,714	166,31
834,888	177,37
835,061	164,94
835,234	151,15
835,408	185,15
835,581	159,89
835,754	185,56
835,928	169,86
836,101	190,34
836,274	173,27
836,448	170,95
836,621	168,49
836,794	196,21
836,967	160,71
837,141	201,12
837,314	199,62
837,487	243,17
837,66	215,87
837,833	248,36
838,006	236,62
838,179	281,81
838,353	288,37
838,526	308,44
838,699	301,61
838,872	423,26
839,045	652,9
839,218	1276,03
839,391	2540,99
839,564	4665,28
839,736	7523,29
839,909	10880,73
840,082	14318,73
840,255	17201,99
840,428	19043,39
840,601	19415,16
840,774	18149,93
840,947	16554,97
841,119	15398,01
841,292	15486,61
841,465	16972,07
841,638	20120,35
841,81	23115,71
841,983	25684,82
842,156	26625,65
842,328	25548,56
842,501	22272,22
842,674	18298,2
842,846	13951,59
843,019	10520,29
843,191	7758,26
843,364	5997,28
843,537	4736,14
843,709	3903,03
843,882	3269,25
844,054	2788,12
844,226	2450,75
844,399	2208,13
844,571	1985,86
844,744	1858,07
844,916	1684,53
845,089	1507,32
845,261	1358,63
845,433	1260,19
845,606	1160,66
845,778	1095,4
845,95	1051,85
846,122	999,01
846,295	902,21
846,467	837,49
846,639	716,53
846,811	586,28
846,983	491,8
847,156	374,11
847,328	335,47
847,5	278,13
847,672	246,45
847,844	208,49
848,016	199,76
848,188	190,75
848,36	158,8
848,532	160,57
848,704	174,91
848,876	161,53
849,048	174,77
849,22	176,68
849,392	160,57
849,564	156,48
849,736	152,24
849,908	168,35
850,08	161,94
850,251	201,26
850,423	249,32
850,595	419,98
850,767	710,79
850,939	1204,76
851,11	1936,71
851,282	2826,21
851,454	3760,22
851,625	4675,66
851,797	5275,31
851,969	5520,38
852,14	5287,46
852,312	4640,3
852,484	3753,26
852,655	2932,16
852,827	2213,32
852,998	1685,22
853,17	1274,39
853,341	1030,55
853,513	840,22
853,684	738,37
853,856	605,39
854,027	543,95
854,199	471,04
854,37	442,92
854,541	433,09
854,713	387,08
854,884	368,65
855,055	355,13
855,227	341,61
855,398	356,22
855,569	314,03
855,741	325,23
855,912	296,83
856,083	329,6
856,254	295,47
856,425	249,73
856,597	229,52
856,768	201,39
856,939	144,73
857,11	139,27
857,281	142,55
857,452	142,96
857,623	110,6
857,794	106,51
857,965	100,63
858,136	99,54
858,307	106,78
858,478	106,1
858,649	98,59
858,82	85,34
858,991	78,38
859,162	82,2
859,333	92,85
859,504	96,54
859,674	83,02
859,845	80,56
860,016	77,56
860,187	81,25
860,358	80,02
860,528	112,1
860,699	111,97
860,87	99,54
861,04	97,22
861,211	80,29
861,382	87,94
861,552	94,35
861,723	79,06
861,894	99,95
862,064	66,91
862,235	83,16
862,405	85,89
862,576	79,2
862,746	78,24
862,917	105,55
863,087	90,67
863,258	66,5
863,428	62,54
863,599	86,57
863,769	71,55
863,939	92,17
864,11	86,16
864,28	74,97
864,45	86,57
864,621	96,13
864,791	68,69
864,961	76,33
865,132	79,34
865,302	114,56
865,472	109,78
865,642	146,65
865,812	219,28
865,983	315,4
866,153	401,82
866,323	546
866,493	660,82
866,663	740,15
866,833	799,13
867,003	774,96
867,173	685,53
867,343	592,28
867,513	503,54
867,683	378,48
867,853	304,75
868,023	239,9
868,193	209,86
868,363	185,15
868,533	167,54
868,703	157,16
868,873	156,48
869,042	137,36
869,212	136,95
869,382	106,78
869,552	118,38
869,722	136
869,891	132,72
870,061	117,02
870,231	91,9
870,4	127,12
870,57	105,41
870,74	108,55
870,909	87,8
871,079	115,52
871,249	82,07
871,418	100,36
871,588	87,12
871,757	91,08
871,927	70,46
872,096	78,65
872,266	56,4
872,435	68,41
872,605	55,31
872,774	65,82
872,943	46,57
873,113	54,08
873,282	54,62
873,452	44,52
873,621	74,15
873,79	58,17
873,96	52,58
874,129	65,41
874,298	43,29
874,467	70,87
874,637	56,4
874,806	51,35
874,975	49,85
875,144	49,44
875,313	46,3
875,482	67,32
875,652	54,21
875,821	57,08
875,99	61,45
876,159	78,38
876,328	79,34
876,497	59,81
876,666	74,28
876,835	70,32
877,004	67,32
877,173	73,74
877,342	61,72
877,511	58,45
877,679	65,14
877,848	44,25
878,017	50,39
878,186	63,23
878,355	71,69
878,524	55,03
878,692	44,93
878,861	54,21
879,03	41,24
879,199	71,14
879,367	61,86
879,536	49,03
879,705	46,16
879,873	65,68
880,042	61,31
880,211	33,6
880,379	53,12
880,548	65,27
880,716	53,8
880,885	37,97
881,054	53,94
881,222	54,76
881,391	17,9
881,559	37,69
881,727	52,58
881,896	52,58
882,064	66,5
882,233	47,66
882,401	34,01
882,569	55,31
882,738	51,76
882,906	60,63
883,074	65,14
883,243	65
883,411	39,61
883,579	45,89
883,747	39,74
883,916	48,34
884,084	43,97
884,252	51,35
884,42	40,15
884,588	74,15
884,756	67,59
884,925	49,3
885,093	52,99
885,261	47,52
885,429	46,43
885,597	72,24
885,765	60,77
885,933	57,08
886,101	56,94
886,269	55,44
886,437	49,44
886,605	46,84
886,772	40,42
886,94	39,47
887,108	37,97
887,276	56,54
887,444	52,17
887,612	48,34
887,779	36,74
887,947	57,08
888,115	22,13
888,283	28,82
888,45	55,58
888,618	45,89
888,786	30,73
888,953	72,92
889,121	31,55
889,289	33,6
889,456	33,33
889,624	61,59
889,792	70,73
889,959	51,76
890,127	35,24
890,294	51,07
890,462	32,51
890,629	37,56
890,797	32,64
890,964	39,61
891,131	40,83
891,299	39,88
891,466	26,09
891,634	56,13
891,801	27,86
891,968	37,15
892,135	33,87
892,303	27,59
892,47	28,14
892,637	48,21
892,805	39,61
892,972	50,25
893,139	48,07
893,306	57,49
893,473	54,35
893,64	52,71
893,808	33,46
893,975	34,14
894,142	65,55
